-6937.44
-6937.44
-6937.44
-6937.44
-6937.41
-6937.49
-6937.56
-6936.82
-6934.98
-6932.11
-6929.44
-6929.08
-6932.9
-6941.91
-6954.33
-6965.03
-6966.08
-6948.21
-6904.19
-6830.73
-6729.84
-6608.18
-6474.77
-6338.93
-6207.47
-6083.76
-5967.83
-5857.39
-5750.06
-5644.08
-5538.97
-5435.09
-5332.83
-5232.63
-5134.54
-5038.52
-4944.62
-4852.65
-4762.31
-4673.93
-4587.52
-4503.12
-4420.5
-4339.3
-4259.72
-4181.71
-4105.26
-4030.22
-3956.33
-3883.92
-3813.01
-3743.68
-3675.77
-3609.02
-3543.63
-3479.56
-3416.84
-3355.32
-3294.78
-3235.47
-3177.37
-3120.55
-3064.88
-3010.16
-2956.6
-2904.21
-2853.01
-2802.85
-2753.52
-2705.17
-2657.74
-2611.24
-2565.56
-2520.53
-2476.33
-2432.99
-2390.55
-2348.92
-2307.95
-2267.77
-2228.35
-2189.7
-2151.7
-2114.2
-2077.33
-2041.1
-2005.55
-1970.63
-1936.21
-1902.44
-1869.3
-1836.8
-1804.87
-1773.37
-1742.42
-1712.03
-1682.23
-1652.96
-1624.12
-1595.83
-1568.08
-1540.91
-1514.29
-1488.11
-1462.51
-1437.47
-1413
-1389.02
-1365.41
-1342.23
-1319.45
-1297.1
-1275.15
-1253.53
-1232.38
-1211.7
-1191.52
-1171.79
-1152.39
-1133.4
-1114.77
-1096.54
-1078.65
-1061.06
-1043.83
-1026.97
-1010.47
-994.267
-978.281
-962.574
-947.151
-932.042
-917.23
-902.671
-888.429
-874.501
-860.895
-847.577
-834.49
-821.686
-809.156
-796.895
-784.85
-772.944
-761.202
-749.613
-738.195
-726.951
-715.874
-705.049
-694.497
-684.227
-674.186
-664.289
-654.534
-644.886
-635.34
-625.886
-616.509
-607.279
-598.219
-589.353
-580.671
-572.143
-563.806
-555.658
-547.699
-539.904
-532.227
-524.688
-517.273
-509.985
-502.804
-495.71
-488.744
-481.918
-475.257
-468.76
-462.408
-456.221
-450.177
-444.239
-438.341
-432.391
-426.346
-420.133
-413.682
-406.908
-399.726
-392.113
-384.045
-375.534
-366.597
-357.255
-347.572
-337.588
-327.337
-316.842
-306.12
-295.235
-284.23
-273.156
-262.046
-250.924
-239.853
-228.89
-218.115
-207.595
-197.388
-187.569
-178.163
-169.176
-160.588
-152.366
-144.516
-137.04
-129.953
-123.262
-116.961
-111.059
-105.537
-100.371
-95.5274
-90.9714
-86.6997
-82.7015
-78.9723
-75.4957
-72.2479
-69.2253
-66.412
-63.8007
-61.381
-59.1401
-57.0829
-55.1973
-53.4669
-51.8697
-50.3831
-49.0184
-47.7927
-46.7309
-45.8515
-45.1567
-44.6437
-44.2859
-44.0522
-43.9099
-43.8393
-43.8499
-43.9513
-44.1518
-44.4416
-44.792
-45.1731
-45.5463
-45.8808
-46.1582
-46.3712
-46.5419
-46.6905
-46.8396
-47.0018
-47.1817
-47.3867
-47.6134
-47.8528
-48.08
-48.2637
-48.3772
-48.397
-48.315
-48.1406
-47.9031
-47.6538
-47.4373
-47.2855
-47.2071
-47.188
-47.2137
-47.2608
-47.3175
-47.3783
-47.4461
-47.5384
-47.6647
-47.8344
-48.0482
-48.3029
-48.6035
-48.9511
-49.3465
-49.7856
-50.2557
-50.7462
-51.2405
-51.7241
-52.1918
-52.6441
-53.1033
-53.5969
-54.1579
-54.8111
-55.5639
-56.412
-57.3287
-58.2762
-59.2096
-60.0938
-60.9131
-61.6651
-62.3585
-63.0072
-63.6265
-64.2349
-64.8498
-65.4895
-66.17
-66.9028
-67.6937
-68.5346
-69.4027
-70.2702
-71.1086
-71.9076
-72.6707
-73.4191
-74.1802
-74.9751
-75.8066
-76.6569
-77.4905
-78.2649
-78.9484
-79.5342
-80.0399
-80.4995
-80.9486
-81.4088
-81.8865
-82.3657
-82.8159
-83.2087
-83.5273
-83.7828
-84.0065
-84.2439
-84.5393
-84.9214
-85.3932
-85.9244
-86.4659
-86.9631
-87.3738
-87.6857
-87.9185
-88.1127
-88.3123
-88.5481
-88.8179
-89.0803
-89.2637
-89.2768
-89.0297
-88.4469
-87.4732
-86.071
-84.2118
-81.8692
-79.02
-75.6433
-71.7332
-67.2968
-62.3657
-56.9908
-51.235
-45.1611
-38.8288
-32.2844
-25.5744
-18.7419
-11.839
-4.92739
1.92373
8.64553
15.1815
21.4908
27.553
33.361
38.909
44.185
49.1684
53.8366
58.1656
62.1455
65.7852
69.1127
72.1611
74.9588
77.5154
79.8179
81.8398
83.5538
84.9552
86.0634
86.9246
87.5983
88.1377
88.5713
88.9013
89.1055
89.1541
89.0276
88.7271
88.2747
87.7061
87.0541
86.3346
85.5442
84.663
83.6631
82.5234
81.2423
79.8346
78.3244
76.7367
75.0906
73.3906
71.6244
69.7715
67.8144
65.7467
63.5771
61.3351
59.0619
56.8033
54.5989
52.4745
50.439
48.4885
46.6113
44.7977
43.0438
41.3564
39.7427
38.2031
36.7265
35.2802
33.8194
32.3061
30.7251
29.0898
27.4479
25.8624
24.3857
23.0418
21.8225
20.6905
19.5974
18.505
17.3969
16.282
15.1799
14.1075
13.068
12.0473
11.0166
9.94741
8.82081
7.63385
6.39827
5.13052
3.84584
2.55336
1.25214
-0.0662868
-1.41225
-2.79441
-4.22137
-5.6972
-7.21809
-8.77351
-10.3499
-11.9266
-13.4887
-15.0269
-16.5433
-18.0473
-19.5572
-21.0891
-22.6533
-24.2504
-25.8683
-27.489
-29.0979
-30.6844
-32.2514
-33.8111
-35.3775
-36.9574
-38.5451
-40.1205
-41.6547
-43.1217
-44.5047
-45.8081
-47.0567
-48.2878
-49.5407
-50.8428
-52.1982
-53.5868
-54.9696
-56.3015
-57.5505
-58.7067
-59.787
-60.8281
-61.8728
-62.9547
-64.0858
-65.2522
-66.4202
-67.5456
-68.5915
-69.538
-70.3828
-71.1465
-71.8587
-72.5467
-73.2277
-73.9037
-74.563
-75.1892
-75.7718
-76.3148
-76.8395
-77.3774
-77.9579
-78.5969
-79.288
-80.0071
-80.723
-81.4149
-82.0779
-82.7295
-83.3863
-84.0517
-84.694
-85.2396
-85.5838
-85.6034
-85.1891
-84.258
-82.7678
-80.7072
-78.0929
-74.9477
-71.2945
-67.1515
-62.5316
-57.4494
-51.9253
-45.9889
-39.6817
-33.0562
-26.1759
-19.1074
-11.9249
-4.69808
2.50292
9.61678
16.5872
23.3642
29.9047
36.173
42.139
47.7878
53.1117
58.111
62.793
67.157
71.199
74.9026
78.2518
81.2336
83.8562
86.1411
88.1306
89.87
91.3991
92.7404
93.8987
94.8628
95.6203
96.1622
96.4904
96.6189
96.5738
96.3833
96.0831
95.7028
95.2688
94.7948
94.2777
93.6978
93.0202
92.2093
91.2353
90.0892
88.7837
87.3485
85.8187
84.2241
82.5775
80.8749
79.0995
77.2337
75.2646
73.1956
71.0435
68.8379
66.6089
64.3836
62.1733
59.983
57.8092
55.6458
53.492
51.3565
49.2498
47.1848
45.1677
43.1975
41.2688
39.3738
37.509
35.6747
33.8789
32.1272
30.4261
28.7769
27.1766
25.6246
24.1181
22.6595
21.2481
19.8811
18.5488
17.2354
15.9249
14.6041
13.2705
11.9328
10.6081
9.30985
8.0467
6.80804
5.5687
4.29051
2.9392
1.49349
-0.0470134
-1.65826
-3.30544
-4.94985
-6.56798
-8.15392
-9.72126
-11.2891
-12.8792
-14.5021
-16.1551
-17.8274
-19.5046
-21.1771
-22.8385
-24.4906
-26.1384
-27.7876
-29.4453
-31.1144
-32.7965
-34.4894
-36.1886
-37.8861
-39.5751
-41.2474
-42.8991
-44.5263
-46.1293
-47.7077
-49.2587
-50.7769
-52.253
-53.6806
-55.0551
-56.3808
-57.6693
-58.9386
-60.2067
-61.4859
-62.7796
-64.0778
-65.3642
-66.6151
-67.8082
-68.9268
-69.9612
-70.9119
-71.7863
-72.5943
-73.3475
-74.0611
-74.7489
-75.4297
-76.122
-76.8422
-77.5999
-78.3926
-79.204
-80.0115
-80.7902
-81.518
-82.1867
-82.8
-83.3741
-83.9306
-84.4915
-85.0691
-85.6611
-86.2538
-86.8246
-87.3578
-87.8469
-88.3048
-88.7564
-89.2295
-89.7432
-90.2956
-90.8677
-91.4314
-91.9595
-92.4387
-92.8706
-93.2623
-93.6093
-93.8837
-94.0257
-93.9497
-93.556
-92.747
-91.4429
-89.5802
-87.1158
-84.0269
-80.3105
-75.9849
-71.0955
-65.7154
-59.9286
-53.827
-47.4942
-40.9966
-34.3803
-27.673
-20.8912
-14.0447
-7.14587
-0.220797
6.69091
13.5188
20.1697
26.5382
32.5239
38.0505
43.087
47.6539
51.8107
55.6381
59.2088
62.5686
65.7217
68.6359
71.2589
73.5339
75.4258
76.9284
78.0761
78.929
79.5642
80.0533
80.4457
80.7606
80.9883
81.104
81.087
80.934
80.6601
80.2964
79.8664
79.3769
78.8082
78.1205
77.2746
76.2445
75.0289
73.6533
72.1549
70.5668
68.9083
67.1791
65.3681
63.4627
61.4629
59.3875
57.2677
55.1424
53.0442
50.9971
49.0066
47.0712
45.1818
43.3293
41.5075
39.7108
37.9317
36.159
34.3797
32.5847
30.7772
28.9757
27.2098
25.5199
23.9372
22.4797
21.1457
19.9179
18.7709
17.6802
16.6265
15.5931
14.5654
13.5271
12.462
11.3591
10.2194
9.05273
7.88249
6.7287
5.60254
4.50041
3.40675
2.30047
1.16209
-0.0132711
-1.21627
-2.42854
-3.63018
-4.80977
-5.97156
-7.13825
-8.34399
-9.62856
-11.018
-12.5169
-14.1046
-15.735
-17.357
-18.9302
-20.4368
-21.8904
-23.3264
-24.7828
-26.283
-27.8305
-29.4046
-30.9769
-32.523
-34.0335
-35.5213
-37.0087
-38.5151
-40.0488
-41.6034
-43.161
-44.6983
-46.2
-47.6585
-49.0709
-50.4412
-51.7694
-53.0532
-54.2949
-55.5006
-56.6858
-57.8702
-59.0757
-60.3146
-61.5885
-62.8813
-64.163
-65.3988
-66.5501
-67.5879
-68.4958
-69.2797
-69.9624
-70.5858
-71.1947
-71.8281
-72.5103
-73.2385
-73.9845
-74.7104
-75.3786
-75.9683
-76.4828
-76.9501
-77.4078
-77.8908
-78.4248
-79.0119
-79.6419
-80.2972
-80.9542
-81.594
-82.1985
-82.7551
-83.2565
-83.7038
-84.1068
-84.4853
-84.8627
-85.2576
-85.6814
-86.134
-86.6059
-87.0795
-87.5323
-87.9317
-88.2309
-88.3661
-88.2559
-87.806
-86.9245
-85.5309
-83.5733
-81.0288
-77.9031
-74.2248
-70.0357
-65.3874
-60.332
-54.9267
-49.2302
-43.2984
-37.1837
-30.9319
-24.5819
-18.1707
-11.7366
-5.32511
1.00952
7.20565
13.2025
18.9447
24.3901
29.5083
34.2854
38.7241
42.8368
46.6484
50.1858
53.4734
56.5228
59.33
61.8725
64.1159
66.0245
67.5825
68.7958
69.703
70.3646
70.8515
71.2215
71.5064
71.7124
71.8237
71.8112
71.6549
71.3479
70.9007
70.337
69.678
68.9365
68.1094
67.1766
66.1096
64.8779
63.466
61.8811
60.1511
58.3232
56.4503
54.5802
52.7369
50.9213
49.114
47.2848
45.408
43.4772
41.5054
39.5221
37.5573
35.6286
33.7365
31.8644
29.9957
28.1237
26.2644
24.4552
22.7386
21.1497
19.6994
18.3672
17.1117
15.8875
14.6596
13.4162
12.1674
10.9409
9.76827
8.66825
7.64455
6.68494
5.76568
4.85927
3.9466
3.01728
2.07089
1.11211
0.141461
-0.845524
-1.86172
-2.92854
-4.05803
-5.24913
-6.48912
-7.75619
-9.02308
-10.2721
-11.5024
-12.7284
-13.9699
-15.2476
-16.574
-17.9478
-19.3549
-20.7745
-22.1855
-23.5711
-24.9243
-26.2531
-27.5758
-28.9216
-30.318
-31.7847
-33.3246
-34.9212
-36.5457
-38.1641
-39.7542
-41.3085
-42.8336
-44.3449
-45.8582
-47.3716
-48.8752
-50.3509
-51.7825
-53.1572
-54.4742
-55.7376
-56.9513
-58.1174
-59.2382
-60.3201
-61.3761
-62.4269
-63.4951
-64.5956
-65.7299
-66.8855
-68.0374
-69.1555
-70.2182
-71.2145
-72.149
-73.0408
-73.9135
-74.7918
-75.6926
-76.6191
-77.5602
-78.494
-79.3923
-80.234
-81.0034
-81.7007
-82.3375
-82.9335
-83.5066
-84.0698
-84.6298
-85.1864
-85.7411
-86.2932
-86.8486
-87.4097
-87.9785
-88.5496
-89.1162
-89.6708
-90.2126
-90.7472
-91.284
-91.8335
-92.3977
-92.9682
-93.5272
-94.0478
-94.5059
-94.8794
-95.1487
-95.2917
-95.2715
-95.0282
-94.4824
-93.5366
-92.0927
-90.0728
-87.4345
-84.1751
-80.3298
-75.9574
-71.1287
-65.9104
-60.3583
-54.5205
-48.4398
-42.1607
-35.7281
-29.1863
-22.5742
-15.9258
-9.27442
-2.65562
3.88262
10.2864
16.4988
22.4705
28.1697
33.5806
38.6991
43.5209
48.0319
52.2099
56.0272
59.4609
62.505
65.1755
67.5051
69.5352
71.3055
72.8477
74.1836
75.3321
76.3108
77.1366
77.8271
78.3903
78.8213
79.1068
79.2305
79.1857
78.9837
78.6511
78.2274
77.7469
77.2275
76.6652
76.0344
75.2986
74.4292
73.4156
72.2679
71.0115
69.6764
68.2838
66.838
65.3259
63.7311
62.0424
60.2653
58.422
56.5501
54.6888
52.8725
51.1138
49.4043
47.7219
46.0361
44.321
42.5654
40.7776
38.9837
37.2174
35.5099
33.8825
32.3384
30.8654
29.4419
28.0422
26.6498
25.2612
23.8864
22.5488
21.273
20.0775
18.9673
17.9289
16.9292
15.9299
14.8963
13.8064
12.6612
11.4788
10.2873
9.11339
7.97032
6.85262
5.74408
4.62184
3.46748
2.27437
1.04794
-0.202088
-1.46551
-2.73821
-4.02156
-5.32363
-6.65125
-8.00826
-9.39878
-10.818
-12.2601
-13.7176
-15.1799
-16.6351
-18.0735
-19.4906
-20.8862
-22.2672
-23.6424
-25.0188
-26.3969
-27.7697
-29.127
-30.4617
-31.7764
-33.084
-34.4044
-35.7554
-37.1458
-38.5682
-40.0068
-41.4428
-42.8623
-44.2612
-45.6448
-47.0161
-48.3696
-49.6936
-50.9692
-52.1825
-53.3335
-54.4415
-55.5434
-56.6777
-57.8703
-59.1239
-60.4092
-61.6722
-62.8515
-63.8994
-64.8013
-65.5829
-66.3064
-67.0486
-67.8774
-68.824
-69.8689
-70.9492
-71.98
-72.8822
-73.6148
-74.1896
-74.6611
-75.1086
-75.6068
-76.2048
-76.9134
-77.7073
-78.5465
-79.3835
-80.1812
-80.9175
-81.5888
-82.2051
-82.7844
-83.3515
-83.9298
-84.5312
-85.1559
-85.7889
-86.4039
-86.9677
-87.4453
-87.798
-87.9827
-87.9424
-87.6059
-86.8897
-85.7114
-84.0067
-81.7385
-78.9065
-75.5378
-71.6716
-67.3449
-62.5883
-57.424
-51.8805
-45.9998
-39.8461
-33.4997
-27.045
-20.5568
-14.0888
-7.67225
-1.31731
4.96909
11.1764
17.2856
23.2602
29.0565
34.6279
39.9314
44.9309
49.5993
53.9181
57.8766
61.4751
64.7217
67.6349
70.2346
72.5437
74.5761
76.3367
77.8249
79.0445
80.0084
80.7458
81.2978
81.7079
82.0053
82.1969
82.2652
82.1813
81.9256
81.5005
80.9403
80.2997
79.6329
78.9733
78.3175
77.6288
76.8542
75.9443
74.8705
73.6346
72.2594
70.779
69.224
67.6178
65.9746
64.3077
62.6283
60.947
59.2668
57.5831
55.8852
54.162
52.4132
50.6506
48.9014
47.1913
45.5357
43.9343
42.3701
40.8235
39.283
37.7543
36.2599
34.8265
33.4723
32.1983
30.9845
29.8077
28.6498
27.5105
26.4073
25.3651
24.4024
23.5121
22.6655
21.8217
20.9423
20.0061
19.0173
17.9958
16.9673
15.9469
14.9335
13.9152
12.8779
11.8183
10.7464
9.68229
8.64832
7.65469
6.69549
5.74556
4.76762
3.72414
2.58597
1.34068
-0.00584543
-1.43481
-2.91433
-4.40901
-5.89017
-7.33925
-8.75022
-10.1321
-11.5083
-12.903
-14.3313
-15.7977
-17.2866
-18.7689
-20.2147
-21.6057
-22.9453
-24.259
-25.5875
-26.9708
-28.4337
-29.9728
-31.5591
-33.1445
-34.6791
-36.1265
-37.4782
-38.7455
-39.9555
-41.142
-42.3258
-43.5142
-44.7027
-45.8766
-47.0233
-48.1366
-49.2175
-50.2756
-51.323
-52.3721
-53.4288
-54.4874
-55.5359
-56.554
-57.5181
-58.4096
-59.2205
-59.9563
-60.6315
-61.2702
-61.8992
-62.538
-63.1994
-63.8887
-64.5979
-65.3137
-66.0181
-66.6939
-67.3303
-67.9285
-68.5049
-69.0833
-69.69
-70.3477
-71.0582
-71.8004
-72.5321
-73.1906
-73.7064
-74.0066
-74.0236
-73.6963
-72.9721
-71.807
-70.1655
-68.0231
-65.3718
-62.2219
-58.5951
-54.5244
-50.0479
-45.2054
-40.0341
-34.5761
-28.8793
-23.0001
-17.0001
-10.9366
-4.85676
1.20605
7.23358
13.2132
19.1269
24.9438
30.6174
36.0923
41.3152
46.239
50.84
55.1117
59.0556
62.6787
65.9865
68.981
71.6639
74.0445
76.1374
77.9644
79.55
80.9134
82.0613
82.991
83.6923
84.1563
84.3806
84.3786
84.1718
83.793
83.2759
82.6415
81.9038
81.0664
80.1313
79.1005
77.9824
76.7902
75.5379
74.2321
72.8692
71.4411
69.9324
68.3307
66.6311
64.8433
62.9914
61.1089
59.2371
57.413
55.6667
54.0106
52.4369
50.9241
49.4465
47.9832
46.5294
45.1002
43.7291
42.4487
41.2806
40.2214
39.2392
38.2908
37.3316
36.3332
35.2967
34.25
33.2351
32.2919
31.4407
30.6778
29.9813
29.3155
28.6483
27.9548
27.2244
26.4558
25.6473
24.7961
23.8981
22.9521
21.9602
20.9305
19.878
18.8165
17.7541
16.6911
15.6219
14.536
13.4238
12.2794
11.1014
9.89483
8.66693
7.42331
6.16962
4.91089
3.6483
2.37988
1.09596
-0.215035
-1.5664
-2.96863
-4.42435
-5.92371
-7.44868
-8.97447
-10.4808
-11.9589
-13.4125
-14.8565
-16.3072
-17.7769
-19.2669
-20.7668
-22.2583
-23.725
-25.1594
-26.56
-27.9329
-29.2832
-30.6111
-31.9113
-33.1736
-34.3927
-35.5724
-36.7214
-37.854
-38.9791
-40.0913
-41.177
-42.2126
-43.1769
-44.0649
-44.889
-45.6754
-46.4591
-47.266
-48.1074
-48.9763
-49.8534
-50.7161
-51.5422
-52.3239
-53.0573
-53.7464
-54.3995
-55.0277
-55.6385
-56.2316
-56.795
-57.2942
-57.6678
-57.8332
-57.6932
-57.1506
-56.1209
-54.5416
-52.3757
-49.6083
-46.2428
-42.3011
-37.8133
-32.8185
-27.3629
-21.4983
-15.2763
-8.75464
-1.99751
4.92024
11.917
18.9043
25.8003
32.5424
39.094
45.4459
51.6065
57.5856
63.3857
68.9875
74.3526
79.4311
84.1777
88.5629
92.5792
96.2421
99.5849
102.642
105.44
107.984
110.267
112.269
113.973
115.379
116.505
117.389
118.072
118.591
118.971
119.221
119.346
119.352
119.253
119.071
118.831
118.546
118.213
117.807
117.292
116.633
115.8
114.788
113.609
112.298
110.892
109.424
107.914
106.365
104.764
103.095
101.343
99.5123
97.6227
95.705
93.7945
91.9201
90.1017
88.346
86.6542
85.0267
83.4664
81.9731
80.5397
79.1424
77.7441
76.3031
74.7842
73.1786
71.5102
69.8309
68.2083
66.6986
65.3337
64.1085
62.9892
61.9289
60.8827
59.8234
58.7414
57.6386
56.5157
55.3655
54.1753
52.9365
51.6516
50.3387
49.0317
47.7598
46.5361
45.3449
44.1436
42.8837
41.5245
40.0493
38.4727
36.8273
35.1466
33.4486
31.7345
29.9876
28.1933
26.3469
24.461
22.5607
20.6732
18.8176
17.0018
15.2162
13.4485
11.6884
9.93349
8.19089
6.47243
4.78822
3.14077
1.52097
-0.0851176
-1.69398
-3.31515
-4.94886
-6.58735
-8.21129
-9.80319
-11.3495
-12.846
-14.296
-15.7123
-17.1066
-18.4896
-19.8638
-21.2231
-22.557
-23.8515
-25.0915
-26.266
-27.3671
-28.3927
-29.3494
-30.2545
-31.1322
-32.0101
-32.9135
-33.8576
-34.8427
-35.8543
-36.869
-37.8579
-38.798
-39.6793
-40.506
-41.2934
-42.056
-42.7881
-43.458
-43.9892
-44.2681
-44.1593
-43.5253
-42.2554
-40.2807
-37.5831
-34.1863
-30.1458
-25.5287
-20.4016
-14.8253
-8.85283
-2.53625
4.07322
10.921
17.9523
25.1157
32.3635
39.6558
46.9549
54.2244
61.4236
68.5018
75.4032
82.0645
88.4247
94.4324
100.054
105.281
110.119
114.591
118.729
122.56
126.103
129.37
132.361
135.068
137.486
139.611
141.449
143.023
144.366
145.52
146.522
147.403
148.173
148.824
149.337
149.692
149.881
149.909
149.793
149.552
149.194
148.716
148.098
147.319
146.36
145.223
143.92
142.473
140.902
139.224
137.443
135.559
133.567
131.465
129.256
126.943
124.536
122.049
119.505
116.936
114.377
111.861
109.41
107.027
104.693
102.377
100.051
97.6971
95.3232
92.9581
90.6469
88.4308
86.3356
84.3651
82.5022
80.7171
78.9819
77.2818
75.6147
73.9958
72.4427
70.9659
69.5578
68.1854
66.8055
65.3688
63.8383
62.2048
60.4914
58.7428
57.0138
55.3495
53.7667
52.2512
50.7647
49.2555
47.6775
46.0015
44.2202
42.3424
40.3883
38.3795
36.332
34.2599
32.1756
30.09
28.0137
25.9589
23.9341
21.9418
19.9766
18.0318
16.0974
14.1634
12.2198
10.2628
8.28879
6.29325
4.2771
2.24366
0.203319
-1.82574
-3.8209
-5.76071
-7.63358
-9.43896
-11.1881
-12.8958
-14.5709
-16.2108
-17.8005
-19.3222
-20.7645
-22.1349
-23.4552
-24.7566
-26.0689
-27.4033
-28.7507
-30.0893
-31.3951
-32.6556
-33.8692
-35.0493
-36.2085
-37.3549
-38.4872
-39.5957
-40.678
-41.7391
-42.7908
-43.8471
-44.9161
-45.995
-47.0697
-48.1267
-49.158
-50.1646
-51.1566
-52.1464
-53.1331
-54.0949
-54.9791
-55.7046
-56.1671
-56.2517
-55.8481
-54.8648
-53.2376
-50.9354
-47.9582
-44.3291
-40.0869
-35.2698
-29.9139
-24.0428
-17.6837
-10.8695
-3.6518
3.88708
11.6432
19.5017
27.3549
35.1163
42.7339
50.1842
57.4591
64.5532
71.4482
78.1105
84.492
90.545
96.2288
101.515
106.393
110.859
114.914
118.562
121.812
124.682
127.199
129.401
131.328
133.016
134.492
135.77
136.856
137.748
138.451
138.976
139.338
139.56
139.659
139.647
139.518
139.264
138.869
138.32
137.607
136.727
135.675
134.445
133.027
131.419
129.632
127.697
125.66
123.574
121.481
119.401
117.317
115.187
112.961
110.594
108.072
105.416
102.672
99.8984
97.1448
94.4358
91.7676
89.1195
86.4692
83.8082
81.1547
78.545
76.0307
73.653
71.436
69.3752
67.4447
65.6047
63.8146
62.0426
60.2716
58.4968
56.7257
54.9706
53.2483
51.5791
49.9786
48.4559
47.0106
45.6277
44.2755
42.9195
41.5277
40.0781
38.5629
36.9852
35.355
33.6809
31.9668
30.2142
28.425
26.6025
24.7514
22.8794
20.9888
19.0785
17.1438
15.1798
13.1864
11.1718
9.15107
7.14275
5.16327
3.21942
1.30552
-0.595029
-2.50515
-4.44734
-6.43441
-8.46449
-10.5236
-12.5878
-14.6317
-16.6352
-18.5908
-20.5053
-22.3924
-24.2693
-26.1479
-28.0288
-29.9008
-31.7454
-33.543
-35.2822
-36.9614
-38.5939
-40.1993
-41.7929
-43.3786
-44.9412
-46.4447
-47.8449
-49.1034
-50.2014
-51.1538
-52.004
-52.8139
-53.6473
-54.5457
-55.5202
-56.5508
-57.5977
-58.6188
-59.587
-60.4966
-61.3621
-62.2098
-63.0632
-63.9343
-64.8213
-65.7095
-66.5861
-67.4414
-68.276
-69.1006
-69.927
-70.7613
-71.5998
-72.4296
-73.2332
-73.9963
-74.7092
-75.3718
-75.9806
-76.514
-76.9209
-77.1109
-76.9627
-76.3438
-75.1288
-73.2305
-70.6104
-67.2788
-63.2817
-58.6828
-53.5425
-47.9088
-41.8177
-35.2991
-28.387
-21.1321
-13.6051
-5.89287
1.90746
9.70436
17.4196
24.9957
32.3962
39.5947
46.5659
53.2766
59.6817
65.7279
71.3622
76.5451
81.2589
85.5071
89.314
92.7123
95.7277
98.3833
100.691
102.659
104.305
105.656
106.749
107.623
108.315
108.842
109.214
109.423
109.461
109.322
109.009
108.535
107.923
107.19
106.349
105.4
104.332
103.125
101.76
100.227
98.5293
96.6766
94.6874
92.5755
90.3504
88.0176
85.5799
83.0401
80.415
77.7254
74.9978
72.2598
69.5287
66.8155
64.123
61.4521
58.8095
56.2129
53.6896
51.2672
48.964
46.7789
44.691
42.6645
40.6654
38.6764
36.707
34.7898
32.964
31.264
29.6992
28.2488
26.8686
25.5115
24.1388
22.7365
21.3151
19.8981
18.5087
17.1549
15.8278
14.5004
13.1409
11.7248
10.2457
8.71054
7.13881
5.55177
3.95993
2.36662
0.760816
-0.87331
-2.55006
-4.2734
-6.04336
-7.84519
-9.66123
-11.4708
-13.2588
-15.0212
-16.7653
-18.513
-20.2926
-22.1305
-24.042
-26.0257
-28.0631
-30.1214
-32.166
-34.1705
-36.1197
-38.011
-39.8501
-41.6469
-43.4105
-45.1459
-46.858
-48.5503
-50.2263
-51.8889
-53.5345
-55.1584
-56.7525
-58.3075
-59.8189
-61.2887
-62.7193
-64.1178
-65.4881
-66.8271
-68.1287
-69.3847
-70.5902
-71.7454
-72.8579
-73.9418
-75.009
-76.069
-77.1232
-78.1644
-79.183
-80.1714
-81.1284
-82.0584
-82.9702
-83.8748
-84.7757
-85.6727
-86.5579
-87.4197
-88.2476
-89.0322
-89.7685
-90.4553
-91.0984
-91.7124
-92.315
-92.9249
-93.5574
-94.2169
-94.8901
-95.5546
-96.1808
-96.7378
-97.1959
-97.5259
-97.6881
-97.62
-97.2392
-96.4385
-95.1005
-93.1161
-90.4002
-86.9027
-82.6148
-77.5686
-71.8315
-65.4972
-58.6784
-51.4917
-44.0482
-36.4451
-28.7534
-21.019
-13.268
-5.52076
2.19366
9.83187
17.3293
24.6091
31.5926
38.2201
44.4547
50.2884
55.737
60.8247
65.5761
70.0042
74.109
77.8745
81.2798
84.3017
86.9251
89.1478
90.9843
92.4633
93.6299
94.5363
95.2346
95.7724
96.1879
96.506
96.7348
96.868
96.8848
96.7593
96.4616
95.9733
95.2952
94.4499
93.4762
92.4197
91.3143
90.1703
88.9674
87.6624
86.201
84.5417
82.6671
80.5907
78.35
75.9938
73.5623
71.0785
68.5406
65.9317
63.2287
60.4243
57.5305
54.581
51.626
48.7176
45.8938
43.1665
40.5232
37.9352
35.3758
32.8335
30.3208
27.8725
25.5315
23.3314
21.283
19.3682
17.5458
15.768
13.9907
12.1892
10.3635
8.53309
6.72819
4.98184
3.31667
1.74079
0.244899
-1.19834
-2.62657
-4.08244
-5.59822
-7.1915
-8.86371
-10.5991
-12.3712
-14.158
-15.9448
-17.7271
-19.509
-21.2963
-23.0876
-24.8777
-26.6554
-28.4153
-30.1636
-31.9209
-33.7157
-35.5747
-37.5099
-39.5152
-41.5622
-43.6154
-45.6404
-47.6133
-49.5271
-51.39
-53.214
-55.0119
-56.7923
-58.5561
-60.3021
-62.0244
-63.7223
-65.3988
-67.0631
-68.7272
-70.4064
-72.1114
-73.847
-75.6065
-77.3669
-79.0925
-80.7437
-82.2857
-83.6973
-84.9813
-86.1602
-87.2694
-88.3472
-89.423
-90.5141
-91.6236
-92.7489
-93.8814
-95.0106
-96.1273
-97.2201
-98.2751
-99.2812
-100.231
-101.122
-101.957
-102.744
-103.492
-104.211
-104.909
-105.593
-106.265
-106.924
-107.571
-108.199
-108.806
-109.393
-109.963
-110.526
-111.086
-111.646
-112.197
-112.725
-113.212
-113.649
-114.046
-114.425
-114.817
-115.25
-115.733
-116.254
-116.781
-117.276
-117.714
-118.092
-118.432
-118.774
-119.166
-119.643
-120.225
-120.902
-121.648
-122.421
-123.171
-123.846
-124.387
-124.726
-124.784
-124.463
-123.656
-122.25
-120.146
-117.273
-113.601
-109.146
-103.963
-98.1304
-91.732
-84.8453
-77.5374
-69.8779
-61.949
-53.8497
-45.6978
-37.6149
-29.7074
-22.0489
-14.6758
-7.59449
-0.795628
5.728
11.97
17.902
23.4847
28.6681
33.411
37.6817
41.4686
44.7807
47.6452
50.1057
52.2103
54.0021
55.5122
56.7575
57.7446
58.4856
59.0059
59.3457
59.5597
59.7002
59.801
59.8736
59.9102
59.8958
59.817
59.6757
59.482
59.2436
58.9572
58.6023
58.1462
57.5554
56.81
55.9098
54.8707
53.7207
52.4822
51.1656
49.7627
48.2558
46.6216
44.8431
42.9182
40.8617
38.7027
36.479
34.2285
31.9802
29.7454
27.5219
25.2911
23.0291
20.7156
18.3409
15.9102
13.4416
10.9637
8.50624
6.09902
3.76674
1.52884
-0.598327
-2.60711
-4.50099
-6.29812
-8.03142
-9.74556
-11.4831
-13.2753
-15.1311
-17.0331
-18.9441
-20.8222
-22.6303
-24.3574
-26.0164
-27.6412
-29.2747
-30.9532
-32.6989
-34.5084
-36.3643
-38.2405
-40.1163
-41.9802
-43.8348
-45.6901
-47.5623
-49.4647
-51.408
-53.4032
-55.4574
-57.5756
-59.7603
-62.0034
-64.2924
-66.6089
-68.9362
-71.2601
-73.5698
-75.8571
-78.1129
-80.3232
-82.4807
-84.5881
-86.6689
-88.7677
-90.9374
-93.2222
-95.6376
-98.1594
-100.722
-103.241
-105.641
-107.878
-109.949
-111.897
-113.777
-115.646
-117.534
-119.445
-121.361
-123.258
-125.116
-126.932
-128.714
-130.479
-132.239
-133.995
-135.735
-137.435
-139.067
-140.604
-142.036
-143.362
-144.6
-145.768
-146.892
-147.984
-149.056
-150.111
-151.157
-152.199
-153.245
-154.295
-155.344
-156.37
-157.354
-158.278
-159.139
-159.956
-160.761
-161.587
-162.466
-163.407
-164.398
-165.412
-166.416
-167.379
-168.281
-169.118
-169.895
-170.626
-171.318
-171.983
-172.626
-173.258
-173.893
-174.55
-175.245
-175.987
-176.772
-177.579
-178.374
-179.121
-179.795
-180.392
-180.924
-181.42
-181.906
-182.4
-182.903
-183.407
-183.9
-184.386
-184.883
-185.418
-186.014
-186.677
-187.381
-188.068
-188.659
-189.063
-189.199
-189
-188.418
-187.426
-186.009
-184.16
-181.88
-179.172
-176.047
-172.514
-168.582
-164.256
-159.541
-154.452
-149.022
-143.306
-137.386
-131.363
-125.341
-119.404
-113.606
-107.967
-102.477
-97.1172
-91.8701
-86.7401
-81.7508
-76.9365
-72.3358
-67.9785
-63.8873
-60.0735
-56.5413
-53.2916
-50.317
-47.6008
-45.1178
-42.8392
-40.7392
-38.8138
-37.0739
-35.5453
-34.2507
-33.1968
-32.3575
-31.6814
-31.1045
-30.5735
-30.0668
-29.6011
-29.226
-29.0026
-28.983
-29.1923
-29.6186
-30.2247
-30.9629
-31.7915
-32.6891
-33.6629
-34.7394
-35.9538
-37.3329
-38.885
-40.5891
-42.4002
-44.2612
-46.1099
-47.9004
-49.6047
-51.224
-52.7797
-54.3079
-55.8464
-57.427
-59.0643
-60.7521
-62.4648
-64.1626
-65.803
-67.3507
-68.7934
-70.1418
-71.4242
-72.6791
-73.9333
-75.196
-76.4548
-77.6817
-78.85
-79.9452
-80.9704
-81.9446
-82.893
-83.8393
-84.7948
-85.7624
-86.7396
-87.7191
-88.6989
-89.6786
-90.6567
-91.6357
-92.6173
-93.6023
-94.5943
-95.5941
-96.5965
-97.5941
-98.5789
-99.5463
-100.508
-101.486
-102.512
-103.606
-104.769
-105.976
-107.176
-108.317
-109.36
-110.295
-111.146
-111.96
-112.786
-113.661
-114.602
-115.606
-116.654
-117.734
-118.835
-119.955
-121.1
-122.271
-123.467
-124.682
-125.9
-127.105
-128.275
-129.388
-130.43
-131.392
-132.283
-133.125
-133.949
-134.789
-135.669
-136.596
-137.558
-138.527
-139.471
-140.365
-141.194
-141.962
-142.683
-143.376
-144.058
-144.742
-145.429
-146.118
-146.804
-147.481
-148.148
-148.806
-149.462
-150.125
-150.795
-151.463
-152.114
-152.73
-153.293
-153.8
-154.26
-154.696
-155.13
-155.579
-156.049
-156.529
-157.002
-157.449
-157.861
-158.234
-158.573
-158.874
-159.125
-159.296
-159.342
-159.212
-158.852
-158.21
-157.243
-155.914
-154.195
-152.077
-149.563
-146.678
-143.46
-139.951
-136.191
-132.212
-128.037
-123.685
-119.18
-114.557
-109.86
-105.135
-100.429
-95.7702
-91.1709
-86.6251
-82.1219
-77.6559
-73.2384
-68.9026
-64.6973
-60.6777
-56.8921
-53.3669
-50.098
-47.0577
-44.2008
-41.4808
-38.8672
-36.3587
-33.984
-31.7866
-29.8109
-28.0808
-26.5824
-25.2706
-24.0793
-22.9485
-21.8409
-20.759
-19.7447
-18.8628
-18.1791
-17.7395
-17.555
-17.5985
-17.8166
-18.1483
-18.5433
-18.9776
-19.4536
-20.0001
-20.6563
-21.4565
-22.419
-23.5333
-24.7688
-26.0772
-27.4044
-28.7132
-29.9858
-31.2282
-32.4629
-33.7193
-35.0216
-36.3782
-37.7808
-39.2087
-40.6374
-42.0421
-43.4067
-44.7237
-45.9915
-47.2137
-48.395
-49.5425
-50.659
-51.7464
-52.8037
-53.8289
-54.8168
-55.7622
-56.6638
-57.5238
-58.3476
-59.1416
-59.9112
-60.6588
-61.3855
-62.0921
-62.7853
-63.4763
-64.1771
-64.9
-65.6492
-66.4191
-67.1972
-67.966
-68.713
-69.4325
-70.1266
-70.8023
-71.4705
-72.1402
-72.8203
-73.5179
-74.2396
-74.9899
-75.7698
-76.5782
-77.4083
-78.2494
-79.0913
-79.9264
-80.7521
-81.5761
-82.411
-83.2722
-84.1732
-85.1142
-86.0784
-87.0291
-87.9204
-88.7061
-89.3574
-89.8771
-90.3004
-90.6857
-91.0951
-91.5739
-92.1362
-92.7672
-93.4355
-94.1123
-94.7845
-95.4592
-96.1518
-96.8662
-97.5887
-98.2816
-98.9021
-99.4182
-99.8207
-100.131
-100.384
-100.614
-100.839
-101.062
-101.273
-101.475
-101.677
-101.903
-102.179
-102.517
-102.906
-103.315
-103.705
-104.043
-104.314
-104.525
-104.699
-104.863
-105.032
-105.209
-105.373
-105.491
-105.514
-105.39
-105.069
-104.509
-103.677
-102.554
-101.132
-99.4087
-97.3777
-95.0242
-92.3217
-89.2363
-85.7402
-81.825
-77.5121
-72.8531
-67.9265
-62.8192
-57.6094
-52.3516
-47.0697
-41.7584
-36.3968
-30.9604
-25.4413
-19.8584
-14.2584
-8.70271
-3.25829
2.02174
7.10718
11.9915
16.6834
21.1965
25.5424
29.721
33.725
37.544
41.1761
44.631
47.9275
51.0901
54.1361
57.0667
59.8637
62.502
64.9539
67.2059
69.2612
71.1389
72.8631
74.4524
75.9169
77.2593
78.4825
79.5918
80.6003
81.5219
82.3619
83.112
83.745
84.2242
84.5142
84.5919
84.4547
84.1194
83.6126
82.9656
82.2045
81.354
80.4369
79.4728
78.4835
77.4803
76.4668
75.4359
74.3821
73.3045
72.2138
71.1325
70.0832
69.0781
68.1115
67.1642
66.2074
65.2202
64.1987
63.1627
62.143
61.1746
60.285
59.4824
58.7625
58.1078
57.4982
56.9138
56.3366
55.7492
55.135
54.4819
53.7856
53.0538
52.3027
51.5564
50.8358
50.1531
49.5046
48.8786
48.2556
47.6167
46.9495
46.2476
45.5102
44.74
43.9412
43.1165
42.2703
41.406
40.5241
39.6174
38.677
37.6886
36.6424
35.5369
34.3819
33.1937
31.9903
30.7803
29.5618
28.3222
27.0473
25.727
24.364
22.9732
21.5784
20.2046
18.8709
17.5843
16.3431
15.1369
13.9549
12.7858
11.6253
10.4718
9.32704
8.19285
7.06985
5.95635
4.85025
3.7479
2.65247
1.57057
0.511573
-0.511093
-1.48468
-2.40557
-3.27978
-4.12239
-4.95472
-5.79557
-6.656
-7.53256
-8.4067
-9.25084
-10.0406
-10.7615
-11.4179
-12.0337
-12.6441
-13.2836
-13.9717
-14.7086
-15.4769
-16.2496
-17.004
-17.7275
-18.417
-19.0711
-19.6786
-20.212
-20.6276
-20.8716
-20.8948
-20.6578
-20.1308
-19.2905
-18.1106
-16.5583
-14.5925
-12.1797
-9.30239
-5.97378
-2.23738
1.83364
6.1538
10.6368
15.2157
19.8479
24.5118
29.2019
33.9161
38.647
43.3756
48.0703
52.6961
57.2183
61.6081
65.8431
69.9051
73.7766
77.4404
80.8825
84.0926
87.0754
89.8481
92.4327
94.8555
97.1335
99.2712
101.261
103.086
104.733
106.196
107.477
108.587
109.538
110.342
111.006
111.54
111.949
112.248
112.457
112.595
112.679
112.714
112.696
112.603
112.409
112.083
111.598
110.937
110.096
109.082
107.912
106.616
105.216
103.729
102.157
100.485
98.6949
96.7717
94.7151
92.5479
90.3053
88.0276
85.7434
83.4598
81.1656
78.8396
76.4675
74.0513
71.6166
69.2032
66.8522
64.5902
62.4198
60.3228
58.2655
56.2153
54.1457
52.0453
49.9155
47.765
45.6063
43.4519
41.3183
39.2247
37.1886
35.2227
33.3291
31.493
29.685
27.8649
26.0007
24.0737
22.0877
20.0658
18.0375
16.0247
14.0262
12.0152
9.9518
7.79822
5.53507
3.17285
0.743472
-1.70849
-4.14575
-6.55079
-8.92571
-11.2856
-13.6444
-16.0072
-18.3697
-20.7228
-23.0592
-25.3851
-27.7116
-30.0573
-32.431
-34.8278
-37.2272
-39.6016
-41.9258
-44.1841
-46.3805
-48.5351
-50.6749
-52.8271
-55.0098
-57.2294
-59.4804
-61.7456
-64.003
-66.2307
-68.4122
-70.5388
-72.6107
-74.6396
-76.6381
-78.6166
-80.5784
-82.5201
-84.4333
-86.3087
-88.1397
-89.924
-91.666
-93.3681
-95.0367
-96.6759
-98.2938
-99.9035
-101.524
-103.172
-104.86
-106.587
-108.334
-110.072
-111.766
-113.396
-114.959
-116.468
-117.945
-119.403
-120.838
-122.225
-123.528
-124.715
-125.773
-126.708
-127.542
-128.301
-128.991
-129.589
-130.039
-130.263
-130.172
-129.694
-128.781
-127.422
-125.632
-123.45
-120.923
-118.098
-115.018
-111.721
-108.24
-104.606
-100.845
-96.9831
-93.0472
-89.0651
-85.0636
-81.0782
-77.1422
-73.289
-69.5447
-65.9279
-62.4431
-59.0844
-55.8465
-52.7238
-49.7216
-46.8527
-44.1322
-41.5781
-39.2022
-37.0065
-34.9881
-33.1386
-31.4456
-29.8912
-28.4588
-27.127
-25.8732
-24.6794
-23.5369
-22.4468
-21.4281
-20.5088
-19.7208
-19.0947
-18.6492
-18.3868
-18.2983
-18.3607
-18.5504
-18.8448
-19.2312
-19.7054
-20.272
-20.9447
-21.7354
-22.6547
-23.6982
-24.8509
-26.0886
-27.3769
-28.6847
-29.9894
-31.284
-32.5797
-33.8981
-35.2672
-36.7062
-38.2167
-39.7759
-41.3453
-42.8774
-44.3344
-45.699
-46.9796
-48.2081
-49.4222
-50.652
-51.906
-53.1669
-54.4049
-55.5887
-56.6995
-57.741
-58.7359
-59.7147
-60.7032
-61.7125
-62.7372
-63.7667
-64.7924
-65.812
-66.8363
-67.8758
-68.9372
-70.019
-71.1107
-72.2044
-73.3013
-74.4089
-75.5392
-76.6992
-77.8788
-79.05
-80.1726
-81.2037
-82.1179
-82.913
-83.6123
-84.2584
-84.902
-85.5902
-86.3592
-87.2287
-88.1995
-89.2577
-90.3708
-91.4938
-92.5784
-93.5819
-94.4812
-95.2808
-96.0145
-96.7356
-97.4988
-98.3435
-99.2832
-100.306
-101.385
-102.487
-103.581
-104.652
-105.689
-106.692
-107.656
-108.576
-109.448
-110.269
-111.039
-111.766
-112.456
-113.122
-113.776
-114.435
-115.113
-115.82
-116.559
-117.321
-118.083
-118.817
-119.495
-120.101
-120.636
-121.121
-121.587
-122.066
-122.579
-123.135
-123.726
-124.333
-124.934
-125.506
-126.032
-126.488
-126.846
-127.064
-127.086
-126.849
-126.296
-125.379
-124.075
-122.379
-120.304
-117.876
-115.121
-112.065
-108.732
-105.141
-101.315
-97.2787
-93.0636
-88.7052
-84.244
-79.7207
-75.1732
-70.6319
-66.1186
-61.6465
-57.2285
-52.8762
-48.6061
-44.442
-40.4076
-36.5209
-32.7886
-29.2092
-25.7711
-22.464
-19.2792
-16.2184
-13.2917
-10.51
-7.88438
-5.41767
-3.1075
-0.947164
1.07366
2.96317
4.72483
6.35907
7.86423
9.23555
10.4692
11.5619
12.5072
13.3022
13.9409
14.4224
14.7495
14.9244
14.9576
14.8568
14.6253
14.2646
13.7741
13.1517
12.4017
11.5378
10.5812
9.55808
8.49159
7.3976
6.28047
5.135
3.95139
2.72147
1.44532
0.133926
-1.19187
-2.50806
-3.79083
-5.02743
-6.21856
-7.38183
-8.54166
-9.72807
-10.9594
-12.2378
-13.5463
-14.8502
-16.1139
-17.3107
-18.4394
-19.5223
-20.6036
-21.7293
-22.9356
-24.23
-25.5907
-26.9738
-28.3276
-29.6087
-30.7974
-31.8989
-32.9453
-33.9808
-35.0463
-36.1693
-37.3556
-38.5877
-39.8319
-41.0536
-42.2299
-43.3573
-44.4554
-45.5573
-46.6953
-47.8851
-49.1176
-50.3621
-51.576
-52.7234
-53.7943
-54.8029
-55.7881
-56.7957
-57.8606
-58.9976
-60.1963
-61.4304
-62.6666
-63.8805
-65.0595
-66.2057
-67.3276
-68.4411
-69.5576
-70.6857
-71.8292
-72.9904
-74.1644
-75.3419
-76.5101
-77.6513
-78.753
-79.8084
-80.8226
-81.8084
-82.7854
-83.7665
-84.7554
-85.7397
-86.696
-87.6009
-88.436
-89.2056
-89.9301
-90.6452
-91.3872
-92.1785
-93.0189
-93.8852
-94.7421
-95.5488
-96.279
-96.9212
-97.4823
-97.9766
-98.4166
-98.8031
-99.1252
-99.3592
-99.474
-99.4361
-99.2111
-98.7653
-98.0596
-97.0522
-95.6974
-93.9575
-91.8048
-89.234
-86.2632
-82.9385
-79.3192
-75.4732
-71.4621
-67.326
-63.0864
-58.7449
-54.2943
-49.7346
-45.0844
-40.3803
-35.6754
-31.0221
-26.459
-22.0027
-17.6445
-13.3602
-9.12136
-4.90905
-0.72348
3.41626
7.47858
11.4247
15.2235
18.852
22.2979
25.5624
28.6502
31.566
34.3161
36.9056
39.3369
41.6179
43.7576
45.767
47.6563
49.4344
51.1102
52.6891
54.1753
55.5705
56.8732
58.0699
59.1412
60.0578
60.7887
61.3094
61.6093
61.6962
61.5963
61.3444
60.98
60.5396
60.0483
59.5245
58.9741
58.3947
57.7803
57.1165
56.3864
55.5803
54.6955
53.7438
52.7534
51.7639
50.8159
49.9416
49.161
48.479
47.8831
47.3564
46.8784
46.4296
45.9941
45.5603
45.1201
44.6737
44.2262
43.7915
43.3871
43.0316
42.7355
42.4966
42.2939
42.0942
41.8553
41.5429
41.1414
40.6585
40.1258
39.5839
39.0713
38.6073
38.1905
37.8017
37.4193
37.0269
36.6219
36.2162
35.8263
35.4577
35.1049
34.7469
34.3548
33.9041
33.3835
32.7922
32.1445
31.459
30.7533
30.0432
29.3431
28.6625
28.0082
27.3799
26.7686
26.1571
25.5256
24.8567
24.1431
23.3901
22.6079
21.8067
20.9939
20.1693
19.3314
18.482
17.6267
16.7776
15.9457
15.1379
14.3511
13.5786
12.8126
12.0519
11.3065
10.5983
9.95274
9.3972
8.95031
8.6136
8.37175
8.19461
8.04417
7.88456
7.69254
7.46115
7.20364
6.93766
6.68033
6.43695
6.19625
5.93504
5.62709
5.25707
4.82106
4.33235
3.81388
3.29513
2.80751
2.3861
2.07055
1.90801
1.95108
2.24991
2.84759
3.77459
5.04584
6.6664
8.63752
10.9605
13.636
16.6656
20.0448
23.7579
27.7776
32.066
36.5803
41.2815
46.1336
51.1092
56.1879
61.3478
66.567
71.8181
77.0705
82.2899
87.4493
92.5212
97.4878
102.333
107.042
111.596
115.975
120.162
124.14
127.899
131.439
134.762
137.868
140.759
143.435
145.898
148.16
150.242
152.178
154.005
155.757
157.449
159.075
160.605
161.995
163.206
164.212
165.019
165.657
166.167
166.586
166.928
167.175
167.295
167.243
166.989
166.522
165.854
165.012
164.025
162.913
161.691
160.37
158.961
157.479
155.944
154.373
152.775
151.147
149.486
147.784
146.048
144.299
142.568
140.886
139.275
137.733
136.236
134.743
133.21
131.601
129.907
128.14
126.337
124.544
122.804
121.149
119.59
118.122
116.726
115.381
114.065
112.763
111.467
110.174
108.884
107.606
106.352
105.134
103.96
102.83
101.728
100.63
99.5051
98.3341
97.1116
95.8503
94.5803
93.3329
92.1331
90.9885
89.8838
88.7886
87.6581
86.4498
85.1336
83.6962
82.1452
80.5104
78.8313
77.1524
75.5104
73.9258
72.3991
70.9153
69.4475
67.9691
66.4651
64.9372
63.4032
61.8841
60.4007
58.9612
57.5626
56.1873
54.8183
53.4383
52.0356
50.6048
49.1414
47.6421
46.1018
44.5178
42.8949
41.2406
39.5746
37.9222
36.3064
34.7477
33.2562
31.8257
30.4382
29.0638
27.6728
26.2432
24.7722
23.2749
21.7856
20.3435
18.9764
17.6856
16.4415
15.1918
13.8773
12.4557
10.916
9.28484
7.61643
5.97312
4.40638
2.95031
1.6197
0.417551
-0.649808
-1.56448
-2.2959
-2.80219
-3.03565
-2.9503
-2.50137
-1.65314
-0.382749
1.31579
3.425
5.90342
8.69094
11.7182
14.9172
18.2372
21.646
25.1275
28.6752
32.2812
35.9287
39.5937
43.2432
46.8417
50.3551
53.7526
57.0067
60.0957
63.0023
65.7153
68.2256
70.5322
72.6362
74.5407
76.2528
77.78
79.1352
80.333
81.3855
82.3019
83.0818
83.7132
84.1808
84.4695
84.5759
84.5155
84.3234
84.0477
83.7384
83.4315
83.1356
82.8331
82.4827
82.034
81.448
80.7055
79.818
78.8199
77.7584
76.6743
75.5921
74.5127
73.4244
72.3073
71.1486
69.951
68.7292
67.5019
66.2791
65.055
63.8074
62.506
61.1222
59.6436
58.0731
56.4304
54.7407
53.0245
51.2908
49.5371
47.7489
45.9045
43.9867
41.9809
39.8863
37.7162
35.4888
33.2363
30.9861
28.7625
26.576
24.4266
22.2997
20.1767
18.0367
15.8672
13.6674
11.4459
9.21801
7.00287
4.81115
2.64429
0.495122
-1.6517
-3.81536
-6.00805
-8.23447
-10.4907
-12.7603
-15.0263
-17.2703
-19.4818
-21.6622
-23.8213
-25.972
-28.1204
-30.2623
-32.3809
-34.4509
-36.4521
-38.3773
-40.239
-42.0641
-43.887
-45.7332
-47.6113
-49.5114
-51.415
-53.2991
-55.1453
-56.943
-58.6858
-60.3654
-61.974
-63.5084
-64.9823
-66.422
-67.8732
-69.3811
-70.9729
-72.6472
-74.3727
-76.0918
-77.7469
-79.2952
-80.7216
-82.0425
-83.2922
-84.5114
-85.7329
-86.9719
-88.2213
-89.4583
-90.6494
-91.7665
-92.7902
-93.7198
-94.5779
-95.3992
-96.2205
-97.0662
-97.9451
-98.8383
-99.7104
-100.521
-101.234
-101.833
-102.314
-102.685
-102.946
-103.09
-103.084
-102.878
-102.412
-101.627
-100.485
-98.971
-97.1009
-94.9085
-92.4332
-89.706
-86.7356
-83.5048
-79.9857
-76.1493
-71.9851
-67.5061
-62.7505
-57.7755
-52.64
-47.3963
-42.0837
-36.7348
-31.3743
-26.0301
-20.7399
-15.5435
-10.4792
-5.57517
-0.843462
3.72366
8.14772
12.4588
16.6882
20.8562
24.9687
29.0108
32.9513
36.7389
40.3205
43.653
46.7122
49.5056
52.0671
54.4424
56.6716
58.7785
60.7617
62.6052
64.289
65.8098
67.1867
68.4564
69.6633
70.8387
71.9867
73.0771
74.0625
74.8917
75.5294
75.9712
76.2401
76.3746
76.4069
76.3524
76.2032
75.9396
75.54
75.0007
74.3334
73.5674
72.7374
71.8716
70.9867
70.089
69.1723
68.2304
67.2563
66.2397
65.1753
64.0597
62.8978
61.7051
60.5072
59.3408
58.241
57.2323
56.3233
55.5003
54.7365
53.9967
53.2473
52.4661
51.6476
50.7983
49.9403
49.1049
48.3196
47.6047
46.9649
46.3877
45.8436
45.2941
44.7034
44.0436
43.3054
42.494
41.6304
40.7401
39.847
38.9659
38.099
37.2332
36.3456
35.4122
34.4166
33.3543
32.2368
31.0874
29.9295
28.7836
27.6578
26.5475
25.4426
24.3278
23.1944
22.0395
20.8668
19.6808
18.4867
17.284
16.0697
14.8312
13.5577
12.2424
10.8816
9.48251
8.06237
6.64384
5.25321
3.91028
2.62557
1.4015
0.230899
-0.897122
-1.98931
-3.04741
-4.06911
-5.04299
-5.96353
-6.82894
-7.64239
-8.41961
-9.17974
-9.94673
-10.741
-11.575
-12.4499
-13.3541
-14.2643
-15.1518
-15.9904
-16.7613
-17.461
-18.1033
-18.7131
-19.3245
-19.9636
-20.6412
-21.3441
-22.0279
-22.6255
-23.0494
-23.2061
-23.0138
-22.4099
-21.3639
-19.8766
-17.9752
-15.6987
-13.0922
-10.1831
-6.98874
-3.5161
0.232882
4.24754
8.50079
12.9472
17.5278
22.1806
26.8502
31.4978
36.1062
40.6821
45.2414
49.7957
54.3431
58.851
63.2588
67.492
71.4831
75.1915
78.613
81.7812
84.7482
87.5583
90.2325
92.7579
95.0986
97.2141
99.0777
100.688
102.073
103.272
104.32
105.248
106.064
106.766
107.349
107.81
108.151
108.378
108.493
108.491
108.368
108.112
107.716
107.175
106.487
105.659
104.701
103.624
102.438
101.143
99.7312
98.185
96.4848
94.6193
92.5954
90.442
88.2036
85.9278
83.651
81.3864
79.1204
76.8242
74.4749
72.0656
69.616
67.1649
64.7562
62.4212
60.165
57.9693
55.8006
53.6322
51.4507
49.264
47.0923
44.9578
42.8728
40.8323
38.8245
36.8332
34.8529
32.8879
30.9489
29.0461
27.1782
25.3312
23.4808
21.5975
19.6572
17.644
15.551
13.3784
11.1308
8.81536
6.4445
4.03483
1.60616
-0.814158
-3.20217
-5.53996
-7.82197
-10.0581
-12.2699
-14.4882
-16.74
-19.0389
-21.3818
-23.7486
-26.1069
-28.4195
-30.6579
-32.8064
-34.8683
-36.8633
-38.8163
-40.7565
-42.7035
-44.6675
-46.6488
-48.6411
-50.6364
-52.6252
-54.6018
-56.5628
-58.5065
-60.435
-62.3528
-64.2665
-66.1747
-68.071
-69.9366
-71.751
-73.4971
-75.1752
-76.8049
-78.4253
-80.0776
-81.7914
-83.5703
-85.384
-87.1801
-88.9074
-90.5331
-92.0588
-93.5219
-94.9819
-96.496
-98.0975
-99.7858
-101.528
-103.272
-104.965
-106.572
-108.078
-109.497
-110.854
-112.184
-113.516
-114.862
-116.216
-117.55
-118.821
-119.981
-120.983
-121.791
-122.379
-122.722
-122.795
-122.567
-122.009
-121.095
-119.815
-118.183
-116.222
-113.968
-111.46
-108.728
-105.798
-102.696
-99.4563
-96.1225
-92.7452
-89.3704
-86.0321
-82.7398
-79.4853
-76.2516
-73.0245
-69.8108
-66.6341
-63.5363
-60.5657
-57.7588
-55.1359
-52.6998
-50.4366
-48.3244
-46.3471
-44.4967
-42.7788
-41.2071
-39.7964
-38.5531
-37.4723
-36.5346
-35.7124
-34.9838
-34.3365
-33.7754
-33.3168
-32.9802
-32.779
-32.713
-32.7663
-32.9169
-33.1443
-33.4399
-33.8111
-34.2728
-34.8415
-35.52
-36.2959
-37.1443
-38.0327
-38.9358
-39.8433
-40.7631
-41.7101
-42.7059
-43.7623
-44.8806
-46.0554
-47.2754
-48.5279
-49.8027
-51.0888
-52.3694
-53.6232
-54.825
-55.9545
-57.0029
-57.9799
-58.9155
-59.8468
-60.8083
-61.8174
-62.8663
-63.9295
-64.9743
-65.9792
-66.9454
-67.8992
-68.8796
-69.9216
-71.0392
-72.215
-73.4057
-74.5586
-75.6273
-76.5932
-77.4696
-78.2952
-79.1241
-80.0051
-80.9653
-82.0056
-83.1006
-84.2101
-85.2884
-86.3009
-87.2302
-88.0809
-88.8748
-89.647
-90.4337
-91.2663
-92.1623
-93.1251
-94.1495
-95.2275
-96.3515
-97.5196
-98.7273
-99.9596
-101.191
-102.387
-103.509
-104.53
-105.444
-106.269
-107.051
-107.836
-108.665
-109.563
-110.529
-111.541
-112.567
-113.573
-114.534
-115.438
-116.283
-117.078
-117.833
-118.562
-119.276
-119.988
-120.707
-121.443
-122.199
-122.976
-123.765
-124.555
-125.332
-126.08
-126.787
-127.45
-128.076
-128.674
-129.259
-129.84
-130.419
-130.992
-131.549
-132.076
-132.559
-132.984
-133.326
-133.551
-133.611
-133.448
-133.005
-132.239
-131.135
-129.702
-127.976
-125.994
-123.782
-121.338
-118.634
-115.629
-112.294
-108.628
-104.672
-100.498
-96.192
-91.8279
-87.4529
-83.08
-78.7014
-74.3057
-69.8965
-65.4989
-61.1565
-56.9165
-52.8112
-48.8465
-45.0002
-41.2309
-37.498
-33.7747
-30.064
-26.3988
-22.8351
-19.4342
-16.2458
-13.2959
-10.5758
-8.05065
-5.67313
-3.40014
-1.20631
0.90478
2.90861
4.77067
6.46178
7.97103
9.3094
10.4999
11.5719
12.5488
13.4432
14.259
14.9993
15.6641
16.2545
16.768
17.1966
17.5245
17.732
17.8042
17.7382
17.5453
17.2524
16.8928
16.4992
16.0943
15.6892
15.282
14.8655
14.4317
13.9795
13.5149
13.0482
12.5909
12.1512
11.7277
11.3124
10.8931
10.4613
10.0204
9.58845
9.19402
8.86947
8.63747
8.49908
8.43491
8.4056
8.36792
8.28766
8.14954
7.9617
7.75237
7.55574
7.40055
7.29436
7.21808
7.13062
6.98355
6.74319
6.40482
6.0013
5.58967
5.23091
4.96325
4.78795
4.67051
4.55595
4.39388
4.15696
3.84565
3.47904
3.07655
2.64364
2.16933
1.6303
1.01706
0.340073
-0.370158
-1.0675
-1.71476
-2.29961
-2.84039
-3.37573
-3.94827
-4.58556
-5.28614
-6.0247
-6.76112
-7.45436
-8.07649
-8.61955
-9.09146
-9.50922
-9.88877
-10.2413
-10.5749
-10.8914
-11.1929
-11.4835
-11.7646
-12.039
-12.3044
-12.5571
-12.7959
-13.0251
-13.2559
-13.4971
-13.7589
-14.0396
-14.3243
-14.589
-14.809
-14.9653
-15.048
-15.0512
-14.9673
-14.7741
-14.4322
-13.884
-13.0612
-11.8997
-10.3474
-8.37214
-5.9567
-3.10025
0.185337
3.87778
7.94662
12.3527
17.0503
21.9952
27.1464
32.4712
37.9451
43.5445
49.2456
55.0181
60.8289
66.6393
72.4167
78.1353
83.7765
89.3277
94.7792
100.117
105.327
110.393
115.305
120.059
124.657
129.104
133.4
137.54
141.515
145.311
148.918
152.331
155.548
158.565
161.38
163.989
166.39
168.589
170.595
172.429
174.101
175.62
176.983
178.181
179.205
180.052
180.731
181.254
181.638
181.889
181.997
181.946
181.718
181.301
180.692
179.908
178.97
177.907
176.736
175.476
174.14
172.739
171.291
169.814
168.328
166.849
165.385
163.935
162.492
161.049
159.603
158.159
156.731
155.331
153.967
152.634
151.315
149.987
148.632
147.248
145.855
144.486
143.191
142.009
140.962
140.048
139.241
138.494
137.757
136.979
136.126
135.185
134.164
133.09
132.009
130.967
130.003
129.134
128.355
127.635
126.933
126.206
125.425
124.581
123.678
122.73
121.75
120.745
119.716
118.67
117.62
116.591
115.611
114.701
113.858
113.055
112.245
111.371
110.39
109.284
108.063
106.77
105.456
104.178
102.975
101.868
100.85
99.8943
98.9603
98.0056
96.995
95.909
94.7426
93.5074
92.2227
90.9033
89.5597
88.1932
86.7936
85.3516
83.8556
82.2976
80.6739
78.9869
77.2382
75.4325
73.5754
71.6698
69.7187
67.7188
65.662
63.5411
61.353
59.1003
56.7984
54.4738
52.1615
49.8994
47.736
45.7251
43.9374
42.455
41.3709
40.7717
40.7281
41.2781
42.4175
44.1055
46.2754
48.8486
51.7586
54.9565
58.4213
62.1544
66.1675
70.4644
75.0308
79.8258
84.7793
89.8055
94.815
99.7322
104.508
109.123
113.582
117.907
122.121
126.238
130.259
134.178
137.973
141.624
145.105
148.394
151.471
154.319
156.936
159.328
161.504
163.476
165.246
166.811
168.165
169.305
170.24
170.994
171.596
172.073
172.441
172.701
172.84
172.843
172.691
172.368
171.861
171.156
170.239
169.102
167.75
166.201
164.493
162.669
160.767
158.809
156.8
154.726
152.571
150.321
147.976
145.543
143.034
140.458
137.823
135.14
132.422
129.695
126.991
124.346
121.782
119.305
116.902
114.544
112.202
109.861
107.522
105.207
102.942
100.745
98.6196
96.5495
94.5071
92.4706
90.4308
88.3989
86.3976
84.4506
82.5664
80.7353
78.9301
77.1218
75.2915
73.4417
71.5928
69.7811
68.0366
66.3734
64.7842
63.244
61.7132
60.1542
58.5357
56.8414
55.0747
53.2566
51.4202
49.6049
47.8431
46.148
44.5106
42.8962
41.2575
39.5481
37.7399
35.831
33.844
31.8189
29.7951
27.7994
25.8424
23.9165
22.0094
20.1084
18.2069
16.3003
14.3875
12.4617
10.5198
8.56274
6.60115
4.65303
2.74499
0.89406
-0.892377
-2.6213
-4.30665
-5.96234
-7.59319
-9.19418
-10.7539
-12.2629
-13.7264
-15.1582
-16.5832
-18.0242
-19.4888
-20.9686
-22.4388
-23.8686
-25.2341
-26.5281
-27.7651
-28.9737
-30.1893
-31.4347
-32.7158
-34.0157
-35.3025
-36.5427
-37.7158
-38.8274
-39.9029
-40.9848
-42.1061
-43.2771
-44.4706
-45.617
-46.6176
-47.3634
-47.7515
-47.7019
-47.166
-46.1258
-44.5849
-42.5631
-40.0863
-37.1804
-33.8741
-30.1978
-26.1861
-21.8815
-17.3378
-12.6142
-7.76895
-2.85379
2.09724
7.06357
12.0376
17.0151
21.9843
26.919
31.7782
36.5215
41.1067
45.5055
49.7002
53.6816
57.4411
60.967
64.2433
67.2601
70.0161
72.5251
74.8127
76.9099
78.8376
80.6059
82.2089
83.6286
84.8497
85.8635
86.672
87.2847
87.7155
87.9769
88.0766
88.023
87.8246
87.4965
87.0566
86.5237
85.9084
85.2113
84.4219
83.5141
82.4573
81.2245
79.8021
78.1893
76.4069
74.4891
72.4788
70.4192
68.3472
66.2899
64.2655
62.2764
60.3129
58.3522
56.3611
54.3097
52.1754
49.9588
47.6869
45.4067
43.1739
41.0359
39.0204
37.1259
35.3308
33.6034
31.9148
30.2485
28.6009
26.9776
25.3853
23.8323
22.3273
20.8817
19.504
18.2051
16.9851
15.832
14.7186
13.6115
12.477
11.2985
10.0766
8.83023
7.59238
6.39522
5.26385
4.20393
3.20645
2.24496
1.28734
0.304148
-0.721321
-1.79243
-2.89895
-4.02501
-5.15532
-6.28335
-7.41407
-8.55699
-9.72362
-10.9194
-12.1399
-13.3733
-14.6017
-15.8151
-17.0067
-18.1807
-19.3439
-20.5092
-21.6851
-22.8786
-24.091
-25.32
-26.5629
-27.8132
-29.0651
-30.3103
-31.5392
-32.7401
-33.9024
-35.016
-36.0775
-37.0891
-38.0656
-39.0291
-40.0041
-41.0111
-42.0589
-43.14
-44.2309
-45.3028
-46.3315
-47.3083
-48.2433
-49.1594
-50.0874
-51.0482
-52.0448
-53.0619
-54.0728
-55.0484
-55.9711
-56.8385
-57.6618
-58.464
-59.264
-60.079
-60.9162
-61.7741
-62.6457
-63.5238
-64.3931
-65.2337
-66.0176
-66.7066
-67.2547
-67.611
-67.7288
-67.5583
-67.0536
-66.176
-64.8903
-63.1697
-60.9975
-58.3721
-55.305
-51.8201
-47.9532
-43.7457
-39.2397
-34.4798
-29.5068
-24.3624
-19.0837
-13.7031
-8.25416
-2.76883
2.71572
8.15589
13.5022
18.7015
23.7112
28.5079
33.0877
37.4641
41.6562
45.6722
49.5012
53.1092
56.4597
59.5179
62.2699
64.7273
66.9226
68.8931
70.6704
72.2739
73.7071
74.9625
76.0355
76.9272
77.6423
78.1903
78.5793
78.8163
78.9048
78.8472
78.6471
78.3124
77.8508
77.2685
76.5688
75.7515
74.8103
73.7316
72.505
71.1243
69.5997
67.9616
66.2603
64.5572
62.9051
61.3314
59.8236
58.3335
56.7901
55.1303
53.3171
51.3587
49.3094
47.2514
45.2666
43.4143
41.7165
40.1553
38.6814
37.2359
35.7685
34.25
32.6794
31.0807
29.4921
27.9554
26.5012
25.1438
23.8778
22.6898
21.559
20.4694
19.4046
18.3568
17.3128
16.2557
15.1667
14.0285
12.8337
11.5875
10.3078
9.01419
7.7275
6.46134
5.21436
3.97654
2.73554
1.47702
0.190916
-1.13052
-2.48731
-3.87265
-5.27832
-6.6869
-8.07678
-9.43308
-10.7497
-12.0375
-13.3209
-14.6288
-15.9831
-17.3868
-18.8214
-20.2534
-21.6457
-22.973
-24.235
-25.4536
-26.6647
-27.9058
-29.203
-30.5669
-31.9893
-33.4527
-34.9363
-36.4264
-37.9119
-39.382
-40.8286
-42.2359
-43.588
-44.8714
-46.0845
-47.2405
-48.3643
-49.4843
-50.6254
-51.7972
-52.99
-54.177
-55.3295
-56.4254
-57.4587
-58.4415
-59.4
-60.3625
-61.3488
-62.3661
-63.4075
-64.4569
-65.4951
-66.5096
-67.4935
-68.447
-69.3775
-70.296
-71.2153
-72.1431
-73.0739
-73.9888
-74.8437
-75.5721
-76.0902
-76.3108
-76.154
-75.5592
-74.4877
-72.924
-70.8706
-68.3408
-65.3562
-61.9481
-58.1534
-54.0123
-49.5677
-44.8629
-39.943
-34.8495
-29.6268
-24.3178
-18.9648
-13.5956
-8.23599
-2.89722
2.4066
7.65844
12.8253
17.8642
22.7258
27.3676
31.7631
35.9073
39.8192
43.5291
47.0704
50.4724
53.7582
56.9482
60.0608
63.1163
66.1313
69.1181
72.0756
74.991
77.845
80.6162
83.2865
85.8428
88.2787
90.586
92.7567
94.7791
96.6471
98.3523
99.8934
101.266
102.464
103.463
104.236
104.747
104.972
104.903
104.554
103.964
103.178
102.243
101.192
100.042
98.7989
97.4597
96.0203
94.4782
92.8372
91.1002
89.2742
87.3689
85.3959
83.3701
81.3077
79.2211
77.1207
75.0105
72.8921
70.7655
68.6297
66.4858
64.3326
62.1703
59.9949
57.8053
55.608
53.4172
51.2489
49.1193
47.0397
45.0072
43.0112
41.0346
39.0644
37.0889
35.1048
33.1095
31.1021
29.0773
27.0316
24.9619
22.872
20.7686
18.666
16.5767
14.5087
12.4689
10.4531
8.45123
6.44595
4.41715
2.34182
0.197279
-2.03218
-4.35574
-6.76758
-9.24833
-11.7673
-14.2926
-16.788
-19.2264
-21.5981
-23.9098
-26.1839
-28.4517
-30.7472
-33.093
-35.4936
-37.9325
-40.379
-42.7956
-45.1518
-47.4357
-49.6555
-51.8374
-54.0161
-56.2207
-58.4615
-60.7313
-63.0049
-65.246
-67.4205
-69.5032
-71.4796
-73.3449
-75.0999
-76.7454
-78.281
-79.7095
-81.0379
-82.277
-83.4434
-84.5576
-85.6376
-86.6963
-87.742
-88.7774
-89.802
-90.813
-91.8016
-92.7581
-93.6688
-94.516
-95.281
-95.9441
-96.4828
-96.8709
-97.0757
-97.0544
-96.7614
-96.1518
-95.1863
-93.8339
-92.0759
-89.9038
-87.3187
-84.3333
-80.9703
-77.2663
-73.2722
-69.0457
-64.6458
-60.1277
-55.5368
-50.9064
-46.2615
-41.6234
-37.0122
-32.4482
-27.9571
-23.5659
-19.3024
-15.1927
-11.2587
-7.51471
-3.96429
-0.602788
2.57438
5.56753
8.37075
10.9619
13.3158
15.4097
17.2363
18.8088
20.1582
21.3283
22.3581
23.2734
24.0752
24.7475
25.2665
25.6155
25.79
25.805
25.6903
25.4721
25.171
24.7971
24.3526
23.8337
23.2398
22.5713
21.8254
20.993
20.0615
19.0192
17.8598
16.5878
15.2216
13.7882
12.3142
10.823
9.33131
7.85209
6.3993
4.98599
3.62253
2.31249
1.04694
-0.196861
-1.44459
-2.71666
-4.01396
-5.32288
-6.61589
-7.86214
-9.04681
-10.171
-11.2486
-12.2995
-13.3359
-14.3536
-15.3353
-16.2592
-17.1066
-17.8699
-18.5565
-19.1827
-19.771
-20.3419
-20.9106
-21.4899
-22.0895
-22.7195
-23.3883
-24.1046
-24.8739
-25.6975
-26.5724
-27.4869
-28.4287
-29.3774
-30.3102
-31.2016
-32.0295
-32.778
-33.4448
-34.0438
-34.6026
-35.1581
-35.7447
-36.3854
-37.0853
-37.8321
-38.6042
-39.3802
-40.1444
-40.8979
-41.6525
-42.4293
-43.2528
-44.1376
-45.0913
-46.1076
-47.1747
-48.2747
-49.3926
-50.5178
-51.6455
-52.7742
-53.8976
-55.0115
-56.1069
-57.1756
-58.2155
-59.2307
-60.2341
-61.2459
-62.2859
-63.3662
-64.4888
-65.6403
-66.7978
-67.9308
-69.0065
-70.0032
-70.9081
-71.7199
-72.453
-73.1288
-73.7766
-74.4273
-75.1046
-75.826
-76.5999
-77.4251
-78.2931
-79.1909
-80.0972
-80.9876
-81.8243
-82.5584
-83.1307
-83.4747
-83.5183
-83.1979
-82.4575
-81.2615
-79.5926
-77.4565
-74.8741
-71.8809
-68.5195
-64.8344
-60.8664
-56.6525
-52.2286
-47.6246
-42.871
-37.9998
-33.0435
-28.0341
-23.0027
-17.9826
-13.0056
-8.10451
-3.31005
1.34844
5.84993
10.1838
14.3448
18.331
22.1382
25.7533
29.1548
32.3139
35.2043
37.8116
40.1345
42.1918
44.0139
45.6339
47.0803
48.3708
49.5082
50.4868
51.2955
51.9247
52.37
52.6303
52.7111
52.6185
52.365
51.9638
51.429
50.7747
50.0093
49.1341
48.1412
47.0208
45.7641
44.3694
42.845
41.2167
39.5158
37.7809
36.046
34.3426
32.6885
31.0868
29.5312
28.008
26.4984
24.9873
23.469
21.9437
20.423
18.9249
17.4701
16.0772
14.7643
13.5461
12.4314
11.4256
10.5253
9.71778
8.97782
8.27575
7.57925
6.86317
6.11658
5.34303
4.55952
3.78916
3.05192
2.35606
1.69772
1.06118
0.424313
-0.235702
-0.931598
-1.66616
-2.43347
-3.22334
-4.02949
-4.85417
-5.70591
-6.59644
-7.53256
-8.51423
-9.52728
-10.5547
-11.5818
-12.6016
-13.6195
-14.649
-15.7046
-16.7958
-17.9205
-19.0712
-20.239
-21.4175
-22.606
-23.8062
-25.0147
-26.2238
-27.4208
-28.5939
-29.7431
-30.8869
-32.06
-33.2961
-34.6232
-36.0453
-37.5347
-39.0421
-40.5074
-41.873
-43.106
-44.1945
-45.1584
-46.0331
-46.8675
-47.7077
-48.5861
-49.5214
-50.5112
-51.5362
-52.5664
-53.5714
-54.5308
-55.4404
-56.3124
-57.1697
-58.0351
-58.9185
-59.8172
-60.7071
-61.5494
-62.3004
-62.9119
-63.3313
-63.4999
-63.3529
-62.8213
-61.8358
-60.3452
-58.3216
-55.7702
-52.7304
-49.2603
-45.4313
-41.3098
-36.9462
-32.3706
-27.6016
-22.648
-17.5236
-12.2501
-6.86036
-1.39712
4.09293
9.56364
14.9699
20.2678
25.4138
30.3643
35.0747
39.5139
43.6607
47.5111
51.079
54.3901
57.4732
60.3565
63.0602
65.595
67.9619
70.1529
72.1471
73.917
75.4319
76.667
77.6115
78.281
78.715
78.9674
79.0956
79.1425
79.1264
79.0438
78.8728
78.5849
78.1563
77.5707
76.8192
75.9021
74.8235
73.5931
72.2288
70.7521
69.1904
67.5637
65.8858
64.1604
62.3883
60.5669
58.7035
56.8172
54.9291
53.0626
51.2325
49.4457
47.6999
45.9929
44.3192
42.6782
41.0689
39.4865
37.9289
36.3956
34.8951
33.4417
32.0501
30.7332
29.4864
28.2901
27.116
25.9349
24.7329
23.5128
22.2962
21.1092
19.9681
18.8762
17.8255
16.7961
15.7728
14.7518
13.7362
12.7305
11.7375
10.7489
9.75046
8.72532
7.66457
6.56418
5.43626
4.2987
3.16958
2.06311
0.981693
-0.0879139
-1.16643
-2.27858
-3.43354
-4.62544
-5.832
-7.02329
-8.17662
-9.2925
-10.396
-11.529
-12.7333
-14.028
-15.4061
-16.8298
-18.2494
-19.6202
-20.9167
-22.1441
-23.3257
-24.4894
-25.6614
-26.8549
-28.0704
-29.3008
-30.5369
-31.7693
-32.9894
-34.1928
-35.3783
-36.5497
-37.7196
-38.9025
-40.1137
-41.3566
-42.6258
-43.9067
-45.178
-46.4172
-47.61
-48.7512
-49.8418
-50.8841
-51.8741
-52.8005
-53.629
-54.304
-54.7524
-54.8865
-54.6202
-53.8782
-52.6096
-50.7952
-48.4469
-45.5967
-42.2899
-38.5719
-34.4805
-30.0431
-25.2847
-20.2306
-14.9167
-9.39267
-3.72261
2.02342
7.78134
13.4989
19.143
24.6957
30.1495
35.4929
40.701
45.7365
50.5546
55.1155
59.3899
63.3727
67.0757
70.523
73.7389
76.7416
79.5409
82.1357
84.5211
86.6894
88.6381
90.3631
91.8673
93.1601
94.2588
95.183
95.9597
96.6102
97.1449
97.5595
97.8377
97.9572
97.8979
97.6513
97.2227
96.6309
95.8972
95.0438
94.0796
93.0102
91.8332
90.5433
89.1415
87.6312
86.0223
84.3262
82.5557
80.7204
78.8224
76.8585
74.8213
72.7049
70.5068
68.2427
65.9394
63.6384
61.383
59.2078
57.1293
55.1426
53.2257
51.3467
49.4812
47.6188
45.7712
43.9624
42.2261
40.5877
39.0627
37.6444
36.3141
35.0414
33.7938
32.5445
31.2737
29.9727
28.644
27.3008
25.9654
24.6674
23.4351
22.2898
21.2364
20.2586
19.3196
18.3695
17.3657
16.2784
15.1038
13.8582
12.57
11.2591
9.92913
8.56893
7.16018
5.69119
4.16792
2.61608
1.06856
-0.443985
-1.90721
-3.32941
-4.73068
-6.13817
-7.56733
-9.02382
-10.4993
-11.9853
-13.4732
-14.9615
-16.4545
-17.9563
-19.4625
-20.9628
-22.4492
-23.9148
-25.3634
-26.8045
-28.2505
-29.7065
-31.1656
-32.6124
-34.0289
-35.4031
-36.7372
-38.0452
-39.345
-40.6495
-41.954
-43.2363
-44.4663
-45.6188
-46.6912
-47.7061
-48.7053
-49.7326
-50.8173
-51.9597
-53.1296
-54.2733
-55.331
-56.2463
-56.9677
-57.4446
-57.6245
-57.4484
-56.846
-55.7546
-54.1251
-51.9339
-49.1811
-45.8853
-42.0771
-37.7894
-33.0557
-27.9168
-22.4258
-16.65
-10.6711
-4.56817
1.58837
7.74988
13.8915
20.007
26.094
32.1467
38.1377
44.0228
49.7437
55.2417
60.47
65.4009
70.0304
74.3678
78.4301
82.2234
85.7469
88.9876
91.9276
94.5534
96.8641
98.8769
100.627
102.16
103.526
104.763
105.893
106.912
107.798
108.514
109.031
109.329
109.414
109.317
109.074
108.721
108.274
107.724
107.043
106.198
105.16
103.924
102.504
100.927
99.2244
97.4211
95.5274
93.5471
91.4828
89.3405
87.1352
84.8899
82.6306
80.3818
78.1616
75.9813
73.8436
71.7448
69.6789
67.6354
65.6061
63.5852
61.5718
59.571
57.5941
55.6581
53.7812
51.9808
50.2674
48.6432
47.1011
45.6277
44.201
42.8025
41.4158
40.0298
38.6396
37.245
35.8496
34.4601
33.0804
31.7126
30.3556
29.0058
27.6582
26.3089
24.9574
23.6081
22.2668
20.9351
19.6087
18.2736
16.9087
15.4906
13.9995
12.4234
10.7654
9.03726
7.25972
5.45599
3.65116
1.86534
0.115158
-1.5936
-3.26121
-4.89768
-6.5223
-8.15511
-9.8176
-11.5203
-13.2658
-15.0436
-16.8361
-18.6167
-20.3563
-22.0305
-23.6215
-25.1236
-26.5444
-27.9054
-29.2342
-30.5592
-31.898
-33.2547
-34.6207
-35.975
-37.2947
-38.5601
-39.7644
-40.9133
-42.0289
-43.1367
-44.2673
-45.4408
-46.6621
-47.9176
-49.178
-50.4083
-51.5753
-52.6569
-53.6416
-54.5281
-55.3053
-55.9448
-56.3892
-56.5565
-56.3506
-55.6786
-54.4704
-52.6901
-50.3375
-47.4409
-44.0457
-40.1962
-35.931
-31.2772
-26.2496
-20.8611
-15.1341
-9.1038
-2.8272
3.62063
10.1596
16.7075
23.1987
29.5855
35.8385
41.941
47.8773
53.6255
59.1551
64.4263
69.3957
74.0288
78.3061
82.2264
85.8075
89.0819
92.0862
94.8517
97.3998
99.7397
101.875
103.805
105.534
107.07
108.424
109.61
110.631
111.482
112.155
112.641
112.942
113.069
113.043
112.89
112.628
112.263
111.785
111.175
110.411
109.479
108.375
107.106
105.688
104.134
102.451
100.641
98.7032
96.6403
94.461
92.1891
89.856
87.4972
85.1412
82.8026
80.4799
78.1588
75.8236
73.4631
71.085
68.7186
66.4
64.1703
62.0508
60.0439
58.1274
56.2608
54.4024
52.5207
50.6047
48.6663
46.7347
44.8456
43.0328
41.3149
39.6938
38.152
36.6578
35.1756
33.6717
32.1238
30.5256
28.8865
27.2258
25.5675
23.9285
22.319
20.7364
19.1673
17.5934
15.9945
14.3581
12.6759
10.954
9.20758
7.45778
5.72406
4.01667
2.33044
0.641503
-1.08199
-2.87079
-4.74111
-6.68517
-8.66967
-10.6474
-12.5733
-14.4165
-16.1736
-17.8626
-19.5165
-21.1691
-22.8438
-24.5449
-26.2634
-27.9823
-29.6841
-31.3574
-32.9993
-34.6138
-36.2064
-37.783
-39.3434
-40.8848
-42.3967
-43.8635
-45.2673
-46.5962
-47.8446
-49.0209
-50.1468
-51.2511
-52.3626
-53.4988
-54.6583
-55.8245
-56.9741
-58.0896
-59.1645
-60.2105
-61.253
-62.317
-63.4158
-64.545
-65.6841
-66.8048
-67.8827
-68.9078
-69.8846
-70.8275
-71.7519
-72.6582
-73.5246
-74.3034
-74.9229
-75.3
-75.3438
-74.9738
-74.1307
-72.7749
-70.8879
-68.4722
-65.5394
-62.1046
-58.1871
-53.8067
-48.9917
-43.7794
-38.2201
-32.3777
-26.3221
-20.1259
-13.8529
-7.55064
-1.25664
4.99964
11.1883
17.2726
23.2053
28.935
34.4175
39.6205
44.5356
49.1694
53.5355
57.6469
61.5034
65.0926
68.3952
71.3972
74.1002
76.5228
78.6905
80.6308
82.3578
83.8685
85.1481
86.1825
86.9738
87.5442
87.9352
88.1987
88.3806
88.5082
88.5896
88.6062
88.5308
88.3308
87.9811
87.4617
86.7668
85.9008
84.8758
83.7125
82.4391
81.0791
79.6497
78.1514
76.5617
74.843
72.9546
70.8666
68.5759
66.1106
63.528
60.8976
58.2824
55.7262
53.2452
50.8336
48.4675
46.1235
43.7847
41.4464
39.1121
36.7961
34.5128
32.2723
30.0833
27.9476
25.8641
23.8309
21.8467
19.9115
18.0277
16.1992
14.4252
12.7047
11.0366
9.4184
7.84611
6.3235
4.85159
3.42768
2.04636
0.692871
-0.654702
-2.02025
-3.42423
-4.87899
-6.38404
-7.92798
-9.48922
-11.0483
-12.5894
-14.1073
-15.6067
-17.0998
-18.6081
-20.1531
-21.754
-23.4215
-25.159
-26.9516
-28.7754
-30.5946
-32.3733
-34.084
-35.7144
-37.2724
-38.7836
-40.2909
-41.8345
-43.4476
-45.1444
-46.9141
-48.723
-50.5316
-52.3021
-54.0136
-55.6709
-57.2962
-58.9176
-60.5563
-62.2138
-63.8669
-65.4781
-67.0118
-68.4468
-69.7861
-71.0621
-72.3175
-73.5905
-74.9035
-76.2484
-77.5952
-78.901
-80.1274
-81.2556
-82.2912
-83.2595
-84.1966
-85.1375
-86.1013
-87.0903
-88.0908
-89.082
-90.0422
-90.9605
-91.8316
-92.6584
-93.4509
-94.2144
-94.9523
-95.6724
-96.3837
-97.1002
-97.8385
-98.6176
-99.4456
-100.316
-101.211
-102.099
-102.94
-103.7
-104.35
-104.876
-105.27
-105.528
-105.639
-105.577
-105.294
-104.717
-103.759
-102.324
-100.328
-97.7174
-94.4803
-90.6527
-86.3112
-81.5574
-76.4934
-71.2006
-65.7233
-60.0712
-54.2387
-48.2195
-42.0329
-35.735
-29.413
-23.1649
-17.0763
-11.1993
-5.54593
-0.0983663
5.17023
10.2711
15.191
19.8948
24.3346
28.4725
32.2877
35.781
38.9688
41.868
44.4898
46.8404
48.9224
50.7448
52.3246
53.6863
54.8574
55.861
56.7115
57.419
57.9882
58.4289
58.7538
58.9735
59.0944
59.1118
59.0107
58.77
58.3718
57.8095
57.0912
56.2379
55.2748
54.2261
53.1001
51.8885
50.5666
49.1046
47.4769
45.6776
43.7225
41.6474
39.4958
37.3083
35.1081
32.8992
30.6728
28.4172
26.1277
23.8153
21.5042
19.2241
17.0021
14.8536
12.7771
10.7632
8.79805
6.8711
4.98151
3.13248
1.33236
-0.412311
-2.09981
-3.73842
-5.34026
-6.91894
-8.48363
-10.039
-11.578
-13.0837
-14.5325
-15.9038
-17.1883
-18.3947
-19.5475
-20.6846
-21.8467
-23.0649
-24.3545
-25.7136
-27.1264
-28.5755
-30.0427
-31.5134
-32.9763
-34.4187
-35.8254
-37.1844
-38.4921
-39.7598
-41.0168
-42.3044
-43.6598
-45.1053
-46.6418
-48.2442
-49.8779
-51.511
-53.1301
-54.7403
-56.3566
-57.9898
-59.637
-61.2785
-62.8876
-64.4445
-65.9499
-67.4271
-68.9094
-70.4258
-71.9826
-73.5582
-75.1093
-76.589
-77.965
-79.2347
-80.4254
-81.5835
-82.759
-83.9822
-85.2602
-86.5713
-87.8826
-89.1598
-90.3825
-91.5519
-92.6824
-93.7951
-94.8984
-95.9865
-97.0321
-97.9989
-98.8562
-99.5908
-100.217
-100.771
-101.294
-101.824
-102.375
-102.94
-103.503
-104.041
-104.547
-105.025
-105.487
-105.947
-106.411
-106.878
-107.34
-107.789
-108.216
-108.615
-108.982
-109.316
-109.62
-109.9
-110.167
-110.435
-110.718
-111.023
-111.357
-111.722
-112.117
-112.539
-112.978
-113.409
-113.79
-114.06
-114.152
-113.992
-113.519
-112.686
-111.462
-109.824
-107.755
-105.238
-102.26
-98.8156
-94.9168
-90.5898
-85.8778
-80.8361
-75.5237
-70.0029
-64.3296
-58.5552
-52.7277
-46.8897
-41.0829
-35.3472
-29.7257
-24.2588
-18.9788
-13.9063
-9.05185
-4.41741
-0.00205185
4.18844
8.13906
11.8269
15.2312
18.3367
21.1405
23.6538
25.9
27.9032
29.6876
31.2706
32.6639
33.8715
34.8955
35.7335
36.3857
36.8594
37.1693
37.3374
37.391
37.3536
37.2374
37.0409
36.7501
36.3447
35.81
35.1418
34.348
33.441
32.4311
31.3217
30.1072
28.7822
27.344
25.8023
24.1747
22.4849
20.7559
19.0078
17.2531
15.5046
13.7741
12.0748
10.4191
8.81645
7.26984
5.77828
4.33717
2.9446
1.59995
0.308933
-0.925579
-2.10192
-3.22468
-4.30432
-5.35543
-6.39332
-7.42731
-8.45871
-9.48062
-10.4824
-11.451
-12.3793
-13.2701
-14.1393
-15.0056
-15.8899
-16.8059
-17.7568
-18.7351
-19.7278
-20.72
-21.7043
-22.6786
-23.6451
-24.6098
-25.5783
-26.559
-27.5636
-28.6048
-29.6979
-30.8508
-32.0597
-33.3037
-34.554
-35.7786
-36.9572
-38.0907
-39.201
-40.3218
-41.4883
-42.7238
-44.0278
-45.3783
-46.7398
-48.0715
-49.3429
-50.5418
-51.6773
-52.7763
-53.8751
-55.0056
-56.1879
-57.4273
-58.7126
-60.024
-61.3382
-62.6338
-63.8924
-65.0969
-66.2322
-67.2852
-68.2461
-69.1172
-69.9162
-70.6732
-71.4251
-72.205
-73.0301
-73.8978
-74.7855
-75.6655
-76.5162
-77.3279
-78.1053
-78.858
-79.5881
-80.2876
-80.9336
-81.4996
-81.9715
-82.3579
-82.6896
-83.0137
-83.3784
-83.8138
-84.3231
-84.884
-85.4612
-86.0185
-86.5377
-87.0217
-87.487
-87.9532
-88.4261
-88.8853
-89.2804
-89.5394
-89.5734
-89.2984
-88.647
-87.5779
-86.0774
-84.1531
-81.8242
-79.1061
-76.0044
-72.5168
-68.6391
-64.3823
-59.7802
-54.8959
-49.8154
-44.6279
-39.4085
-34.206
-29.0343
-23.8826
-18.7337
-13.5819
-8.44406
-3.37091
1.56792
6.29986
10.7657
14.9366
18.8191
22.4441
25.8522
29.0762
32.1218
34.9676
37.5728
39.8953
41.9111
43.6233
45.0694
46.305
47.3822
48.3385
49.1814
49.8997
50.4709
50.8813
51.1356
51.2585
51.2776
51.2179
51.0838
50.8631
50.532
50.0731
49.4822
48.7754
47.9827
47.1341
46.2481
45.3265
44.3568
43.3193
42.1925
40.9634
39.6258
38.1776
36.6185
34.954
33.1934
31.3562
29.4707
27.5684
25.6806
23.8318
22.0348
20.2886
18.5853
16.9068
15.236
13.5551
11.8505
10.1192
8.3725
6.63212
4.92659
3.28524
1.72712
0.257984
-1.13243
-2.46191
-3.74928
-5.0086
-6.24093
-7.44708
-8.62341
-9.77155
-10.9025
-12.0335
-13.1828
-14.3649
-15.5837
-16.8313
-18.09
-19.3388
-20.5565
-21.7347
-22.8758
-23.9967
-25.1254
-26.2928
-27.5223
-28.8259
-30.1953
-31.6049
-33.022
-34.4161
-35.7712
-37.0906
-38.3952
-39.7136
-41.0689
-42.4699
-43.9081
-45.3599
-46.804
-48.2274
-49.6307
-51.0286
-52.4398
-53.8773
-55.3433
-56.826
-58.3151
-59.8047
-61.2963
-62.7962
-64.3086
-65.8191
-67.3042
-68.7306
-70.0734
-71.3268
-72.5157
-73.6827
-74.8706
-76.1038
-77.3764
-78.6518
-79.8757
-81
-82.0027
-82.8971
-83.7264
-84.5449
-85.3984
-86.3059
-87.2578
-88.2197
-89.1509
-90.0176
-90.8067
-91.5268
-92.1992
-92.852
-93.5095
-94.1872
-94.8919
-95.6223
-96.3681
-97.1127
-97.8236
-98.4555
-98.9527
-99.2598
-99.3282
-99.1204
-98.6182
-97.8116
-96.6855
-95.2151
-93.3608
-91.0801
-88.3404
-85.1378
-81.5028
-77.5012
-73.2157
-68.73
-64.1026
-59.3702
-54.5426
-49.6207
-44.6118
-39.5379
-34.4364
-29.36
-24.3605
-19.4835
-14.7628
-10.2221
-5.87799
-1.743
2.17447
5.86951
9.33745
12.5749
15.5782
18.3391
20.8457
23.0928
25.0851
26.8445
28.4075
29.8178
31.1112
32.3029
33.3847
34.3286
35.1058
35.705
36.1366
36.4361
36.6462
36.7968
36.8924
36.9096
36.8069
36.5498
36.1232
35.5391
34.8332
34.0482
33.2207
32.3659
31.4794
30.5409
29.5248
28.4107
27.1871
25.8539
24.4225
22.9138
21.3536
19.7682
18.1828
16.6142
15.0661
13.5325
11.9979
10.4482
8.87228
7.26906
5.64604
4.01837
2.40276
0.815486
-0.730285
-2.22539
-3.66157
-5.03559
-6.35062
-7.61288
-8.83155
-10.0218
-11.1989
-12.3747
-13.556
-14.7456
-15.9386
-17.1259
-18.294
-19.4282
-20.5157
-21.5508
-22.5385
-23.4947
-24.444
-25.4157
-26.4328
-27.5007
-28.6094
-29.736
-30.8484
-31.9228
-32.95
-33.9416
-34.9257
-35.9336
-36.9913
-38.1117
-39.2906
-40.5155
-41.7698
-43.0395
-44.3158
-45.5868
-46.8377
-48.0475
-49.1984
-50.2804
-51.3033
-52.2923
-53.2867
-54.3249
-55.4318
-56.6108
-57.8462
-59.1103
-60.3762
-61.6235
-62.8403
-64.0211
-65.16
-66.241
-67.2531
-68.1878
-69.0523
-69.8707
-70.6749
-71.4998
-72.367
-73.279
-74.2217
-75.1709
-76.1019
-76.9997
-77.8591
-78.6822
-79.4724
-80.2267
-80.938
-81.5972
-82.2035
-82.7681
-83.3176
-83.8885
-84.5122
-85.2053
-85.9603
-86.7497
-87.5335
-88.2763
-88.9603
-89.5953
-90.2047
-90.8249
-91.4775
-92.1633
-92.8512
-93.4844
-93.9953
-94.3126
-94.3767
-94.1405
-93.5703
-92.6412
-91.3307
-89.6164
-87.4775
-84.898
-81.8709
-78.4109
-74.5542
-70.3613
-65.9069
-61.2687
-56.5187
-51.7018
-46.8419
-41.9441
-37.0093
-32.0439
-27.0696
-22.1269
-17.2654
-12.5312
-7.96288
-3.5823
0.599743
4.57989
8.35841
11.9284
15.284
18.4191
21.3333
24.0315
26.524
28.8213
30.9263
32.8333
34.5285
35.9976
37.2354
38.2547
39.092
39.8012
40.4394
41.0508
41.6555
42.2431
42.7794
43.215
43.5068
43.6277
43.5695
43.345
42.98
42.5021
41.9378
41.3065
40.6158
39.8684
39.0545
38.1596
37.1665
36.0634
34.8478
33.531
32.136
30.6941
29.2387
27.7949
26.3773
24.9857
23.6055
22.2174
20.8017
19.3449
17.8484
16.3291
14.8142
13.3334
11.9085
10.5499
9.25603
8.01594
6.82229
5.67231
4.56785
3.51712
2.51832
1.56225
0.634293
-0.284689
-1.20776
-2.1375
-3.06721
-3.99029
-4.90449
-5.81627
-6.73893
-7.68295
-8.64892
-9.62724
-10.6011
-11.5556
-12.4856
-13.3996
-14.3147
-15.2483
-16.209
-17.1982
-18.2095
-19.2398
-20.2935
-21.3817
-22.516
-23.6993
-24.9224
-26.1646
-27.3958
-28.5961
-29.7583
-30.8885
-32.0043
-33.1281
-34.2737
-35.4462
-36.6475
-37.8763
-39.1313
-40.412
-41.7152
-43.0316
-44.3448
-45.6354
-46.8856
-48.0892
-49.2494
-50.3761
-51.4817
-52.5747
-53.6583
-54.729
-55.7875
-56.8363
-57.884
-58.9375
-59.9997
-61.0624
-62.1055
-63.1016
-64.024
-64.857
-65.5987
-66.265
-66.8874
-67.4968
-68.1184
-68.7697
-69.4515
-70.1544
-70.8672
-71.5807
-72.2889
-72.9878
-73.6734
-74.337
-74.9717
-75.5704
-76.1321
-76.6653
-77.1819
-77.6876
-78.1737
-78.6175
-78.9796
-79.2126
-79.2656
-79.0923
-78.645
-77.8737
-76.7265
-75.1504
-73.1058
-70.5779
-67.5836
-64.1744
-60.418
-56.3904
-52.1568
-47.7591
-43.22
-38.5497
-33.7526
-28.8394
-23.8327
-18.7659
-13.6822
-8.6308
-3.659
1.19161
5.88912
10.4146
14.761
18.9292
22.9193
26.7278
30.347
33.7623
36.9594
39.9264
42.6569
45.1526
47.419
49.4626
51.2919
52.9187
54.3541
55.6124
56.704
57.639
58.4287
59.0797
59.6002
60.0036
60.3036
60.5083
60.6245
60.6486
60.5699
60.3722
60.0408
59.5643
58.9391
58.1702
57.2665
56.2439
55.1227
53.9273
52.6792
51.3995
50.0975
48.7736
47.4168
46.0112
44.5476
43.028
41.4712
39.9088
38.3739
36.8926
35.4748
34.1159
32.7944
31.487
30.177
28.8575
27.532
26.2187
24.9367
23.7044
22.5342
21.4322
20.3943
19.4176
18.4959
17.6266
16.8077
16.035
15.2981
14.5821
13.8713
13.1556
12.432
11.7078
10.997
10.3104
9.6464
8.99226
8.32408
7.61853
6.85911
6.04268
5.18066
4.29183
3.39263
2.48987
1.58129
0.651774
-0.316417
-1.33954
-2.4297
-3.5886
-4.81069
-6.08263
-7.38217
-8.68311
-9.9555
-11.1763
-12.3332
-13.4282
-14.4781
-15.5097
-16.5553
-17.6449
-18.795
-20.0142
-21.3
-22.6399
-24.0159
-25.411
-26.8035
-28.1768
-29.5141
-30.8026
-32.0304
-33.1925
-34.289
-35.3256
-36.3169
-37.2822
-38.2394
-39.2069
-40.1944
-41.2003
-42.2157
-43.2218
-44.1962
-45.1176
-45.9733
-46.76
-47.4859
-48.1699
-48.8349
-49.5076
-50.2058
-50.9367
-51.699
-52.4816
-53.263
-54.0215
-54.7365
-55.3822
-55.9287
-56.3348
-56.5501
-56.5099
-56.1503
-55.4148
-54.2623
-52.6697
-50.6345
-48.1651
-45.2778
-41.9922
-38.3368
-34.3507
-30.0864
-25.6066
-20.9756
-16.2458
-11.4516
-6.60568
-1.70764
3.24509
8.24082
13.2512
18.2265
23.1049
27.8259
32.3454
36.6321
40.677
44.4845
48.0608
51.4069
54.5169
57.3769
59.9698
62.286
64.3245
66.0991
67.6342
68.9621
70.1145
71.1169
71.9816
72.7106
73.2933
73.7206
73.9896
74.1092
74.0977
73.9808
73.7775
73.4993
73.1427
72.6942
72.133
71.4406
70.6083
69.6332
68.5182
67.2781
65.9292
64.4882
62.9748
61.4127
59.8194
58.2097
56.5886
54.9513
53.2863
51.5873
49.8559
48.1088
46.3748
44.6884
43.0749
41.5455
40.0951
38.7078
37.3636
36.0432
34.736
33.4381
32.1511
30.8807
29.6403
28.4421
27.3019
26.231
25.2289
24.2814
23.3666
22.4588
21.5403
20.6104
19.6882
18.8016
17.972
17.2032
16.4762
15.7543
14.995
14.1698
13.269
12.3035
11.2978
10.2733
9.24358
8.21245
7.17663
6.13505
5.08697
4.03397
2.97826
1.91796
0.845959
-0.247329
-1.37386
-2.53671
-3.73439
-4.96022
-6.20406
-7.45645
-8.71162
-9.96674
-11.2219
-12.475
-13.717
-14.9367
-16.1208
-17.2623
-18.3627
-19.4418
-20.5273
-21.6499
-22.8308
-24.0714
-25.352
-26.639
-27.8939
-29.0919
-30.2235
-31.2996
-32.3394
-33.3606
-34.3709
-35.3708
-36.3597
-37.3399
-38.3205
-39.3153
-40.3339
-41.3734
-42.4238
-43.4681
-44.4945
-45.5022
-46.5014
-47.5004
-48.4963
-49.4624
-50.3438
-51.0629
-51.5361
-51.6878
-51.4609
-50.8233
-49.7603
-48.2639
-46.3295
-43.9444
-41.0939
-37.765
-33.9625
-29.7077
-25.0502
-20.0543
-14.7934
-9.34136
-3.75639
1.91849
7.65627
13.4369
19.2399
25.0344
30.7837
36.4402
41.9539
47.2838
52.4007
57.2907
61.9526
66.3934
70.6148
74.6098
78.3552
81.8167
84.9567
87.7492
90.1901
92.3004
94.1278
95.7269
97.1523
98.4391
99.6073
100.659
101.595
102.419
103.144
103.784
104.35
104.842
105.239
105.507
105.607
105.505
105.183
104.644
103.915
103.037
102.056
101.015
99.9372
98.829
97.6752
96.4474
95.117
93.6648
92.0916
90.4215
88.692
86.9483
85.226
83.5431
81.8994
80.2794
78.6636
77.0426
75.419
73.8082
72.2303
70.7044
69.2367
67.8189
66.4344
65.068
63.7122
62.3726
61.0621
59.7914
58.5662
57.3788
56.2135
55.0594
53.9194
52.8094
51.7545
50.7727
49.8634
48.9978
48.126
47.1907
46.1517
45.0014
43.7653
42.4934
41.2389
40.0384
38.9006
37.8062
36.7158
35.589
34.3981
33.132
31.7981
30.4162
29.0054
27.5815
26.1547
24.7276
23.3014
21.8815
20.4711
19.0746
17.6919
16.3157
14.9323
13.5264
12.0848
10.6044
9.09177
7.56453
6.04514
4.55497
3.10895
1.71313
0.360203
-0.957406
-2.25196
-3.53111
-4.80021
-6.0607
-7.31289
-8.56009
-9.80921
-11.0679
-12.3434
-13.6403
-14.951
-16.2573
-17.5348
-18.7596
-19.9165
-21.0102
-22.0661
-23.1196
-24.2045
-25.3393
-26.5128
-27.6913
-28.8219
-29.8479
-30.718
-31.3914
-31.8318
-31.9999
-31.838
-31.2764
-30.2321
-28.6273
-26.4045
-23.5399
-20.0507
-15.9864
-11.4182
-6.42594
-1.08393
4.54818
10.4197
16.489
22.719
29.0718
35.5086
41.9891
48.4752
54.9253
61.3026
67.5676
73.6758
79.585
85.2493
90.6303
95.6957
100.427
104.816
108.868
112.59
115.995
119.094
121.896
124.412
126.652
128.63
130.362
131.864
133.151
134.23
135.112
135.808
136.335
136.718
136.99
137.177
137.299
137.35
137.315
137.162
136.868
136.413
135.798
135.035
134.14
133.121
131.974
130.686
129.238
127.616
125.825
123.886
121.835
119.708
117.537
115.334
113.096
110.808
108.454
106.032
103.556
101.059
98.5821
96.1634
93.83
91.5888
89.4279
87.3293
85.2737
83.252
81.2658
79.3262
77.4467
75.6363
73.896
72.219
70.5969
69.0222
67.4905
66.0002
64.5444
63.1113
61.6825
60.2418
58.7818
57.308
55.8356
54.3837
52.9626
51.5652
50.1693
48.7461
47.2751
45.7519
44.1895
42.6135
41.0473
39.4999
37.9687
36.4362
34.883
33.2961
31.6719
30.0122
28.3206
26.5946
24.8292
23.0169
21.154
19.2464
17.3112
15.3692
13.4437
11.5529
9.70751
7.90676
6.14273
4.40076
2.6627
0.912896
-0.859109
-2.65194
-4.45217
-6.24022
-7.99086
-9.68499
-11.3149
-12.8869
-14.4169
-15.9272
-17.4348
-18.9463
-20.456
-21.9513
-23.4149
-24.8393
-26.2289
-27.5985
-28.9694
-30.3552
-31.7511
-33.1323
-34.4597
-35.689
-36.7942
-37.777
-38.6693
-39.5231
-40.3955
-41.3264
-42.3163
-43.3249
-44.2708
-45.0433
-45.5252
-45.6073
-45.2059
-44.2704
-42.7797
-40.7352
-38.1516
-35.0428
-31.4192
-27.2887
-22.6617
-17.5624
-12.0374
-6.15305
0.00573264
6.35041
12.8059
19.3173
25.8525
32.3967
38.9329
45.4275
51.8212
58.0344
63.9776
69.5736
74.7775
79.588
84.042
88.1986
92.1166
95.8328
99.3479
102.63
105.627
108.289
110.582
112.51
114.101
115.405
116.476
117.364
118.101
118.703
119.183
119.545
119.794
119.941
119.995
119.961
119.839
119.619
119.281
118.801
118.152
117.317
116.292
115.086
113.721
112.228
110.631
108.95
107.192
105.357
103.441
101.443
99.3638
97.2071
94.9723
92.656
90.2538
87.7696
85.223
82.6538
80.1148
77.6596
75.3264
73.1232
71.0269
68.993
66.9717
64.9284
62.8554
60.7761
58.7329
56.7728
54.9331
53.2254
51.6343
50.1291
48.6703
47.221
45.7639
44.2965
42.833
41.3963
40.0089
38.681
37.4103
36.1775
34.9547
33.7092
32.4159
31.0586
29.6347
28.1506
26.6233
25.0724
23.5179
21.9761
20.4559
18.9547
17.4606
15.9515
14.398
12.773
11.061
9.26487
7.40429
5.51408
3.63202
1.78685
-0.0157237
-1.79145
-3.5704
-5.37971
-7.23127
-9.11286
-10.9921
-12.8236
-14.5685
-16.2119
-17.7634
-19.2531
-20.7254
-22.2183
-23.7565
-25.3408
-26.9542
-28.5657
-30.1388
-31.6432
-33.0581
-34.3783
-35.6165
-36.8005
-37.9631
-39.1329
-40.3216
-41.5206
-42.7005
-43.8265
-44.868
-45.8169
-46.6899
-47.5224
-48.3566
-49.2281
-50.152
-51.1228
-52.1177
-53.1071
-54.0687
-54.991
-55.8697
-56.7115
-57.5146
-58.2696
-58.9505
-59.5124
-59.8941
-60.02
-59.8069
-59.1675
-58.0287
-56.332
-54.0463
-51.1713
-47.7315
-43.768
-39.332
-34.477
-29.2524
-23.7026
-17.865
-11.7822
-5.49748
0.942302
7.484
14.0719
20.6481
27.1577
33.5496
39.7775
45.7984
51.5764
57.0791
62.2835
67.1738
71.7434
75.9943
79.9308
83.557
86.8706
89.8616
92.512
94.8124
96.7662
98.399
99.759
100.905
101.893
102.751
103.483
104.072
104.489
104.717
104.758
104.64
104.394
104.05
103.617
103.083
102.423
101.606
100.611
99.4285
98.063
96.5264
94.8373
93.0148
91.081
89.0607
86.9805
84.8572
82.7004
80.506
78.2635
75.9583
73.585
71.1506
68.6718
66.1758
63.6905
61.2356
58.8289
56.4763
54.1789
51.9353
49.745
47.6097
45.5351
43.5334
41.6161
39.7955
38.0729
36.4421
34.8873
33.3872
31.9261
30.4995
29.1139
27.781
26.5113
25.2977
24.112
22.9092
21.6393
20.2638
18.7725
17.1914
15.5733
13.98
12.4613
11.0354
9.67894
8.34265
6.96851
5.51482
3.972
2.36495
0.736424
-0.87527
-2.45358
-4.01386
-5.58985
-7.22074
-8.92649
-10.6975
-12.5011
-14.2933
-16.0368
-17.7148
-19.3372
-20.9267
-22.5109
-24.11
-25.732
-27.3749
-29.0341
-30.7015
-32.3698
-34.0354
-35.6883
-37.3158
-38.9053
-40.4462
-41.935
-43.3694
-44.7536
-46.0945
-47.3961
-48.6622
-49.8977
-51.1062
-52.2961
-53.473
-54.6433
-55.8091
-56.9648
-58.0998
-59.1977
-60.239
-61.2108
-62.1117
-62.9513
-63.7532
-64.5489
-65.3672
-66.2294
-67.1366
-68.0727
-69.0073
-69.9086
-70.7484
-71.5136
-72.21
-72.8566
-73.473
-74.0684
-74.6271
-75.1031
-75.4153
-75.4607
-75.1294
-74.3217
-72.9676
-71.0321
-68.5185
-65.4572
-61.8892
-57.8626
-53.4198
-48.5995
-43.4389
-37.9774
-32.2535
-26.306
-20.1746
-13.8985
-7.52804
-1.11984
5.25577
11.5237
17.6157
23.4809
29.0917
34.4431
39.5429
44.4031
49.0258
53.4024
57.5127
61.3337
64.8485
68.0491
70.9432
73.5473
75.8867
77.9892
79.8824
81.5916
83.1325
84.5148
85.7443
86.8228
87.7557
88.5568
89.2462
89.8427
90.3575
90.7881
91.1161
91.3147
91.3554
91.2247
90.9245
90.4705
89.8891
89.2028
88.4272
87.5646
86.6048
85.5309
84.3312
82.9973
81.5321
79.9527
78.2801
76.539
74.7492
72.9225
71.0615
69.1641
67.2234
65.2401
63.218
61.1699
59.1136
57.0653
55.0396
53.0479
51.1012
49.2127
47.4009
45.6856
44.0879
42.6146
41.2577
39.9911
38.7733
37.5595
36.3147
35.0172
33.6651
32.275
30.8658
29.4522
28.0438
26.6424
25.2436
23.8473
22.4568
21.0807
19.7191
18.3627
16.9864
15.5551
14.0364
12.4099
10.6814
8.8816
7.05952
5.26328
3.52626
1.85534
0.231904
-1.37996
-3.02423
-4.73349
-6.52443
-8.39552
-10.3286
-12.2993
-14.285
-16.2731
-18.2619
-20.2609
-22.2874
-24.3529
-26.461
-28.5989
-30.7393
-32.8445
-34.8754
-36.8086
-38.6435
-40.4059
-42.1399
-43.8934
-45.7008
-47.5708
-49.4835
-51.3971
-53.2688
-55.0679
-56.7796
-58.4101
-59.9768
-61.4963
-62.9775
-64.4206
-65.8209
-67.1753
-68.4832
-69.75
-70.9816
-72.1798
-73.3422
-74.4667
-75.5541
-76.6144
-77.6598
-78.7055
-79.7592
-80.8173
-81.8668
-82.8933
-83.8858
-84.8388
-85.7559
-86.6432
-87.5065
-88.3495
-89.1702
-89.9731
-90.7637
-91.5474
-92.3327
-93.1196
-93.9
-94.6586
-95.377
-96.0361
-96.6187
-97.1035
-97.4621
-97.6436
-97.5767
-97.1758
-96.3545
-95.0373
-93.1767
-90.759
-87.796
-84.3237
-80.3849
-76.0279
-71.302
-66.2598
-60.9536
-55.4427
-49.7809
-44.0129
-38.1755
-32.2894
-26.3719
-20.4378
-14.5092
-8.62224
-2.82565
2.81857
8.24385
13.3864
18.1962
22.6426
26.7234
30.4617
33.9018
37.0919
40.0756
42.879
45.5101
47.9589
50.207
52.2413
54.0562
55.6547
57.047
58.2436
59.2546
60.0899
60.7567
61.2706
61.6482
61.9033
62.0469
62.0811
61.9983
61.7852
61.4321
60.9316
60.2878
59.5113
58.6158
57.6159
56.5198
55.3306
54.0471
52.6658
51.1829
49.5996
47.9216
46.1584
44.3263
42.4444
40.5307
38.6013
36.6632
34.7141
32.7421
30.7346
28.683
26.5919
24.4843
22.3958
20.3691
18.4358
16.6087
14.8769
13.2102
11.576
9.9477
8.31839
6.69801
5.11088
3.58391
2.13189
0.75818
-0.547335
-1.80295
-3.03209
-4.25626
-5.49456
-6.7664
-8.08121
-9.44478
-10.8525
-12.2834
-13.7061
-15.0835
-16.3835
-17.5892
-18.7114
-19.7826
-20.8557
-21.9839
-23.2055
-24.5363
-25.9634
-27.4515
-28.9579
-30.4419
-31.8801
-33.2665
-34.6105
-35.9287
-37.2403
-38.5589
-39.8952
-41.2537
-42.6363
-44.0442
-45.4776
-46.9326
-48.4057
-49.8875
-51.371
-52.8505
-54.3165
-55.7634
-57.1843
-58.5739
-59.9298
-61.2536
-62.5499
-63.8281
-65.0942
-66.3502
-67.5912
-68.8062
-69.981
-71.1017
-72.1594
-73.1593
-74.1147
-75.0465
-75.9781
-76.9293
-77.9112
-78.9234
-79.9549
-80.9884
-82.0019
-82.9718
-83.8793
-84.7108
-85.4605
-86.1327
-86.7419
-87.3117
-87.8758
-88.4667
-89.1132
-89.83
-90.6098
-91.4244
-92.2296
-92.9756
-93.6185
-94.1368
-94.5339
-94.8416
-95.1047
-95.3761
-95.7008
-96.1051
-96.5891
-97.135
-97.7086
-98.274
-98.8033
-99.2847
-99.7289
-100.16
-100.607
-101.096
-101.63
-102.184
-102.707
-103.126
-103.359
-103.329
-102.969
-102.227
-101.066
-99.4589
-97.3882
-94.8454
-91.8337
-88.3663
-84.4683
-80.1724
-75.518
-70.5453
-65.3006
-59.8257
-54.1656
-48.3606
-42.4498
-36.4691
-30.4568
-24.4529
-18.5032
-12.6587
-6.96749
-1.47548
3.78003
8.77626
13.499
17.9453
22.117
26.0157
29.6422
32.9928
36.0589
38.8302
41.2983
43.4637
45.3389
46.9471
48.3193
49.4912
50.4957
51.3549
52.083
52.684
53.1626
53.5191
53.7578
53.8845
53.9018
53.8052
53.5883
53.241
52.7585
52.1444
51.4133
50.5896
49.7
48.764
47.7913
46.7762
45.697
44.5292
43.2506
41.8489
40.3286
38.7062
37.0094
35.2636
33.4917
31.7109
29.9383
28.1921
26.4935
24.8623
23.306
21.8164
20.3657
18.9135
17.4265
15.8858
14.3017
12.7136
11.1751
9.73873
8.43496
7.2656
6.20167
5.19567
4.19874
3.17524
2.11181
1.01395
-0.096254
-1.19361
-2.25882
-3.28037
-4.25498
-5.18934
-6.09731
-6.99672
-7.9087
-8.85774
-9.8658
-10.943
-12.0893
-13.2898
-14.5158
-15.7397
-16.9399
-18.109
-19.2609
-20.4222
-21.6177
-22.8641
-24.1539
-25.4651
-26.7685
-28.0433
-29.2951
-30.5572
-31.8836
-33.3232
-34.9037
-36.6107
-38.392
-40.1725
-41.8767
-43.459
-44.92
-46.3
-47.6619
-49.0659
-50.5442
-52.0898
-53.6588
-55.1923
-56.6413
-57.9839
-59.2359
-60.4376
-61.6361
-62.867
-64.1366
-65.4207
-66.6787
-67.8717
-68.9794
-70.0099
-70.9936
-71.9731
-72.9874
-74.0559
-75.1747
-76.3184
-77.4532
-78.5464
-79.5771
-80.5392
-81.4433
-82.3101
-83.1583
-84.0027
-84.8465
-85.6834
-86.5034
-87.2976
-88.0649
-88.814
-89.561
-90.3224
-91.1053
-91.9045
-92.6959
-93.4364
-94.0727
-94.5446
-94.7937
-94.7691
-94.4282
-93.7404
-92.6786
-91.2207
-89.3434
-87.0196
-84.2204
-80.9289
-77.148
-72.9113
-68.289
-63.3807
-58.2964
-53.1349
-47.9633
-42.8057
-37.6495
-32.4645
-27.2195
-21.9086
-16.559
-11.2277
-5.98925
-0.919602
3.92132
8.49435
12.7829
16.7818
20.4931
23.9205
27.0663
29.9337
32.5294
34.8623
36.9431
38.7778
40.3758
41.7448
42.8978
43.8559
44.6463
45.3006
45.8501
46.3201
46.723
47.0651
47.3446
47.5575
47.6994
47.7684
47.7614
47.674
47.4973
47.2188
46.8233
46.3031
45.6513
44.8716
43.9727
42.9697
41.8774
40.7089
39.4705
38.1643
36.7879
35.3402
33.8245
32.2537
30.6481
29.0309
27.4216
25.8295
24.2535
22.6826
21.1043
19.5074
17.8932
16.2694
14.6537
13.0612
11.5012
9.9778
8.48382
7.01085
5.55203
4.10709
2.68609
1.30134
-0.0327773
-1.30932
-2.53017
-3.70773
-4.85737
-5.99851
-7.14408
-8.29823
-9.4582
-10.6147
-11.7574
-12.8773
-13.9719
-15.042
-16.0979
-17.1547
-18.2319
-19.3485
-20.5213
-21.7557
-23.0436
-24.3607
-25.675
-26.9559
-28.1833
-29.3613
-30.5089
-31.6605
-32.8518
-34.107
-35.4302
-36.8084
-38.2169
-39.6284
-41.0265
-42.4086
-43.7857
-45.1727
-46.58
-48.0072
-49.4408
-50.8597
-52.2429
-53.5788
-54.8683
-56.1259
-57.3747
-58.6374
-59.9298
-61.2555
-62.605
-63.9599
-65.2984
-66.6019
-67.8612
-69.0772
-70.2533
-71.3973
-72.5157
-73.6155
-74.7003
-75.7749
-76.8429
-77.9026
-78.943
-79.9436
-80.8782
-81.7214
-82.464
-83.1195
-83.7221
-84.3204
-84.9589
-85.6616
-86.4234
-87.2138
-87.9878
-88.7095
-89.3576
-89.9366
-90.4653
-90.9641
-91.4489
-91.9195
-92.369
-92.7895
-93.1813
-93.5478
-93.9
-94.2327
-94.5238
-94.7248
-94.763
-94.5529
-94.011
-93.0647
-91.6615
-89.7741
-87.3991
-84.5495
-81.2543
-77.5535
-73.4917
-69.1183
-64.4787
-59.6152
-54.5625
-49.348
-43.9966
-38.5315
-32.9803
-27.3772
-21.7659
-16.1973
-10.7221
-5.39021
-0.24247
4.69313
9.40773
13.9001
18.1797
22.2479
26.0979
29.7095
33.0552
36.1058
38.8488
41.291
43.4653
45.4194
47.2077
48.8702
50.4246
51.8616
53.1522
54.2616
55.1645
55.8605
56.3717
56.7376
56.9971
57.1748
57.2742
57.276
57.154
56.8897
56.4823
55.9515
55.3332
54.6634
53.961
53.2234
52.4263
51.5375
50.5234
49.3652
48.0588
46.6106
45.037
43.3601
41.6066
39.8112
38.0136
36.2512
34.5471
32.906
31.3088
29.7184
28.0966
26.4179
24.6788
22.8973
21.1079
19.3473
17.6402
15.9923
14.3955
12.8359
11.3022
9.79504
8.32545
6.90665
5.54818
4.24879
2.99805
1.77823
0.574654
-0.619069
-1.80517
-2.98044
-4.14426
-5.29948
-6.45796
-7.62805
-8.81507
-10.0151
-11.2086
-12.3702
-13.4785
-14.521
-15.5015
-16.4442
-17.3823
-18.3547
-19.391
-20.5134
-21.7304
-23.042
-24.4338
-25.8861
-27.3691
-28.8515
-30.3011
-31.6998
-33.0463
-34.3576
-35.6617
-36.9895
-38.3596
-39.7708
-41.203
-42.6259
-44.0117
-45.35
-46.6487
-47.9329
-49.2334
-50.5712
-51.9523
-53.3653
-54.7862
-56.1896
-57.5571
-58.8793
-60.1562
-61.3891
-62.5811
-63.7336
-64.8475
-65.927
-66.9808
-68.0224
-69.0688
-70.1333
-71.223
-72.3329
-73.4499
-74.5539
-75.6263
-76.6591
-77.6519
-78.6124
-79.5536
-80.4771
-81.3785
-82.2455
-83.0655
-83.832
-84.5538
-85.2531
-85.9565
-86.6842
-87.443
-88.219
-88.9816
-89.6945
-90.3279
-90.8697
-91.3275
-91.7269
-92.1026
-92.4875
-92.9079
-93.3761
-93.8871
-94.4093
-94.8923
-95.2659
-95.4497
-95.364
-94.95
-94.1648
-92.9869
-91.4087
-89.4172
-87.002
-84.1496
-80.8552
-77.1298
-73.0068
-68.5366
-63.7732
-58.7612
-53.5339
-48.1126
-42.5193
-36.7947
-31.0007
-25.2182
-19.5261
-13.9851
-8.61958
-3.41824
1.65008
6.61459
11.4809
16.2238
20.7878
25.1094
29.136
32.8417
36.2307
39.3321
42.1853
44.8208
47.2569
49.4941
51.5279
53.3532
54.9773
56.4171
57.6983
58.8475
59.8871
60.83
61.679
62.4317
63.0763
63.6
63.9909
64.2409
64.347
64.3177
64.1697
63.9241
63.6027
63.2215
62.7866
62.2914
61.7239
61.0681
60.3093
59.4377
58.4482
57.341
56.1199
54.7917
53.3711
51.8803
50.3429
48.7861
47.2281
45.6803
44.142
42.6098
41.0786
39.5512
38.0393
36.5603
35.1307
33.7635
32.4643
31.2323
30.0645
28.9584
27.9114
26.9201
25.974
25.056
24.1409
23.2073
22.2396
21.236
20.2064
19.1723
18.1551
17.1709
16.2226
15.3011
14.3846
13.448
12.4656
11.4194
10.3038
9.12697
7.91015
6.68172
5.4724
4.30735
3.19861
2.14311
1.12285
0.105396
-0.945445
-2.06456
-3.27508
-4.58284
-5.97381
-7.41749
-8.87895
-10.3255
-11.7361
-13.1059
-14.4447
-15.7673
-17.0892
-18.4195
-19.7564
-21.0922
-22.417
-23.7197
-24.9911
-26.2268
-27.4294
-28.6052
-29.7681
-30.9315
-32.1118
-33.3191
-34.5548
-35.8113
-37.0747
-38.3303
-39.5647
-40.7678
-41.9356
-43.0688
-44.1648
-45.2223
-46.2388
-47.2165
-48.1595
-49.0776
-49.9837
-50.8891
-51.796
-52.7026
-53.5977
-54.4655
-55.2945
-56.081
-56.8338
-57.5702
-58.3175
-59.1013
-59.9342
-60.8098
-61.6935
-62.5303
-63.2484
-63.7699
-64.019
-63.9319
-63.4519
-62.5308
-61.1303
-59.2218
-56.7931
-53.8488
-50.4183
-46.5484
-42.2998
-37.7358
-32.9152
-27.888
-22.6932
-17.3611
-11.9177
-6.38931
-0.801142
4.82023
10.4492
16.0527
21.5976
27.0369
32.3198
37.3963
42.2223
46.7727
51.041
55.0401
58.7926
62.3183
65.624
68.7025
71.5345
74.0977
76.3779
78.3764
80.113
81.6188
82.9305
84.0824
85.1014
86.0071
86.8102
87.5174
88.1301
88.6448
89.0494
89.3252
89.451
89.406
89.173
88.7516
88.1511
87.3975
86.5243
85.5658
84.5515
83.5011
82.4177
81.293
80.1075
78.8378
77.4655
75.9855
74.4097
72.7682
71.1038
69.4599
67.8638
66.3225
64.819
63.3218
61.7976
60.2233
58.595
56.9268
55.2447
53.5752
51.9412
50.3561
48.8238
47.3438
45.9099
44.5099
43.1356
41.7772
40.4374
39.1281
37.8686
36.6764
35.5614
34.5138
33.5031
32.4912
31.4458
30.3496
29.2067
28.0345
26.8566
25.682
24.5088
23.3231
22.1101
20.8579
19.5682
18.2487
16.9066
15.5462
14.1633
12.7538
11.3139
9.84871
8.37096
6.89419
5.42897
3.98152
2.54271
1.09863
-0.368456
-1.87648
-3.43515
-5.04169
-6.68471
-8.34413
-9.99673
-11.6252
-13.2253
-14.8061
-16.3863
-17.9815
-19.6038
-21.2456
-22.8848
-24.4928
-26.0462
-27.5314
-28.9522
-30.3252
-31.6671
-32.9907
-34.2985
-35.5924
-36.8748
-38.1553
-39.4551
-40.7947
-42.1813
-43.6029
-45.0221
-46.3846
-47.6391
-48.7528
-49.7232
-50.5815
-51.3795
-52.1752
-53.013
-53.9094
-54.8529
-55.8078
-56.7266
-57.5639
-58.2826
-58.8563
-59.2623
-59.4792
-59.4657
-59.1609
-58.4838
-57.3394
-55.6318
-53.2816
-50.2467
-46.5271
-42.1723
-37.2727
-31.9425
-26.299
-20.4445
-14.4525
-8.36348
-2.19079
4.06292
10.3941
16.7829
23.189
29.5525
35.81
41.9011
47.7816
53.4275
58.8294
63.9896
68.9104
73.5891
78.0181
82.1788
86.053
89.6214
92.868
95.7888
98.3968
100.722
102.805
104.689
106.407
107.97
109.368
110.575
111.567
112.339
112.902
113.291
113.542
113.683
113.725
113.664
113.487
113.194
112.795
112.312
111.771
111.184
110.544
109.825
108.987
107.99
106.809
105.437
103.887
102.188
100.377
98.4917
96.5652
94.6266
92.6915
90.7688
88.859
86.9551
85.0494
83.1352
81.2136
79.2951
77.3969
75.5416
73.7477
72.021
70.3556
68.7318
67.1247
65.5119
63.8894
62.2683
60.6759
59.1396
57.6743
56.2758
54.9202
53.5693
52.1926
50.777
49.3288
47.8696
46.4264
45.0155
43.6396
42.2822
40.9211
39.5335
38.106
36.632
35.1097
33.5375
31.9089
30.2137
28.4462
26.6131
24.7351
22.8503
20.9982
19.2095
17.4918
15.829
14.1829
12.5127
10.7857
8.98791
7.12843
5.23278
3.32567
1.42762
-0.452306
-2.31911
-4.18405
-6.06085
-7.9582
-9.88523
-11.8427
-13.8262
-15.8229
-17.8097
-19.7606
-21.6474
-23.4492
-25.1591
-26.7825
-28.332
-29.8233
-31.2663
-32.6637
-34.014
-35.3177
-36.583
-37.8248
-39.0664
-40.3301
-41.631
-42.974
-44.3533
-45.7521
-47.1524
-48.5362
-49.888
-51.1987
-52.4631
-53.6787
-54.8444
-55.9649
-57.0404
-58.0722
-59.0501
-59.9502
-60.727
-61.3127
-61.6199
-61.553
-61.0214
-59.9557
-58.3145
-56.0865
-53.2833
-49.9272
-46.0404
-41.6417
-36.7517
-31.3987
-25.6285
-19.5016
-13.0952
-6.48953
0.242607
7.03856
13.846
20.6242
27.3357
33.9437
40.4142
46.7133
52.8109
58.6825
64.3061
69.6655
74.7463
79.5369
84.0256
88.2028
92.0592
95.5881
98.7862
101.659
104.221
106.494
108.511
110.305
111.905
113.333
114.6
115.709
116.654
117.429
118.03
118.458
118.719
118.824
118.786
118.619
118.33
117.927
117.409
116.774
116.023
115.155
114.173
113.078
111.873
110.547
109.097
107.514
105.798
103.956
102.01
99.9865
97.9121
95.8133
93.7065
91.6027
89.505
87.4073
85.2966
83.1602
80.9794
78.7457
76.4619
74.1503
71.8484
69.6048
67.464
65.4554
63.584
61.8289
60.1537
58.5194
56.8982
55.2837
53.6926
52.1532
50.6878
49.306
47.9915
46.7109
45.4198
44.0849
42.688
41.2337
39.7433
38.2444
36.7611
35.3058
33.881
32.4771
31.0833
29.6804
28.252
26.7808
25.2524
23.661
22.0125
20.3228
18.6172
16.9161
15.2317
13.5572
11.8738
10.1572
8.39265
6.57928
4.73442
2.881
1.03823
-0.790839
-2.62259
-4.48507
-6.4044
-8.39268
-10.4394
-12.516
-14.5864
-16.6193
-18.5966
-20.5114
-22.3656
-24.1581
-25.8854
-27.5415
-29.1284
-30.6625
-32.1724
-33.6909
-35.2384
-36.8133
-38.3833
-39.8991
-41.3106
-42.5862
-43.7259
-44.7637
-45.7524
-46.7431
-47.7713
-48.8487
-49.9646
-51.097
-52.2238
-53.3354
-54.4278
-55.4992
-56.5457
-57.5549
-58.5112
-59.4047
-60.2389
-61.0406
-61.8512
-62.7208
-63.6859
-64.7616
-65.9308
-67.1481
-68.3487
-69.4556
-70.3965
-71.1011
-71.5087
-71.5576
-71.1918
-70.3571
-68.9999
-67.0717
-64.5339
-61.3639
-57.5632
-53.1581
-48.2009
-42.7675
-36.9411
-30.7983
-24.4007
-17.789
-10.9941
-4.04648
3.01141
10.123
17.2129
24.2083
31.0477
37.6891
44.1085
50.2941
56.2319
61.8989
67.2666
72.3013
76.9802
81.2982
85.2703
88.9223
92.286
95.3849
98.2307
100.816
103.125
105.138
106.842
108.237
109.339
110.184
110.825
111.32
111.728
112.092
112.436
112.754
113.018
113.179
113.189
113.011
112.629
112.053
111.308
110.424
109.42
108.303
107.066
105.693
104.179
102.527
100.756
98.8933
96.9654
94.9939
92.9881
90.9551
88.8981
86.8262
84.7519
82.6909
80.655
78.6501
76.6714
74.7143
72.7776
70.8721
69.0177
67.2399
65.5617
63.9919
62.5267
61.1487
59.8384
58.5772
57.3534
56.1606
54.9937
53.8484
52.7149
51.5867
50.4581
49.3282
48.1988
47.0718
45.9442
44.8108
43.6655
42.5038
41.3296
40.1521
38.9757
37.8026
36.6207
35.4118
34.1584
32.8531
31.5022
30.1254
28.7438
27.3696
25.9982
24.608
23.1704
21.6603
20.0645
18.3891
16.6547
14.891
13.1244
11.3749
9.65391
7.96077
6.28743
4.62041
2.94161
1.23484
-0.514756
-2.31425
-4.16381
-6.05373
-7.97048
-9.90541
-11.8468
-13.7928
-15.74
-17.6867
-19.6264
-21.5488
-23.4376
-25.2763
-27.0502
-28.7449
-30.3568
-31.8881
-33.3513
-34.7645
-36.151
-37.533
-38.9259
-40.3362
-41.7555
-43.1632
-44.5301
-45.8266
-47.03
-48.1345
-49.1508
-50.1092
-51.0432
-51.9822
-52.9407
-53.9164
-54.8914
-55.8377
-56.739
-57.5891
-58.4021
-59.2074
-60.0387
-60.9205
-61.8616
-62.8468
-63.8391
-64.7933
-65.6573
-66.3794
-66.9072
-67.1848
-67.1482
-66.7251
-65.84
-64.4243
-62.4265
-59.8199
-56.6015
-52.7895
-48.4151
-43.5164
-38.1321
-32.3064
-26.0928
-19.5599
-12.7861
-5.85656
1.1478
8.15541
15.1181
21.9979
28.7675
35.4
41.8661
48.1255
54.1323
59.8376
65.1937
70.1603
74.7149
78.856
82.6036
85.9979
89.0921
91.9388
94.5738
97.0124
99.2484
101.26
103.023
104.523
105.77
106.789
107.619
108.299
108.857
109.304
109.639
109.85
109.932
109.887
109.727
109.471
109.133
108.714
108.194
107.542
106.717
105.68
104.414
102.92
101.224
99.3684
97.3985
95.3553
93.2673
91.1417
88.9724
86.7451
84.444
82.0693
79.6331
77.1655
74.7015
72.2699
69.8838
67.5365
65.2048
62.8685
60.5187
58.1726
55.8684
53.6553
51.5737
49.6397
47.8408
46.1404
44.4951
42.8707
41.2534
39.6506
38.0761
36.5401
35.0404
33.5571
32.0631
30.535
28.9618
27.3522
25.7271
24.1119
22.5289
20.9849
19.4689
17.9598
16.4294
14.8557
13.2268
11.5438
9.8215
8.07495
6.31741
4.5526
2.77651
0.978376
-0.847963
-2.70367
-4.5804
-6.46277
-8.33595
-10.1938
-12.0387
-13.8865
-15.7622
-17.6887
-19.6818
-21.7415
-23.852
-25.9798
-28.0861
-30.1337
-32.0999
-33.9814
-35.7928
-37.5638
-39.3233
-41.0894
-42.867
-44.6488
-46.4206
-48.1667
-49.8771
-51.5399
-53.146
-54.6828
-56.1451
-57.5353
-58.8723
-60.1882
-61.5211
-62.9014
-64.3372
-65.8079
-67.2699
-68.6712
-69.9659
-71.1297
-72.1701
-73.1155
-74.0079
-74.8909
-75.7952
-76.7426
-77.74
-78.7864
-79.8775
-81.0016
-82.1446
-83.2868
-84.4034
-85.4687
-86.4585
-87.36
-88.1728
-88.9187
-89.6314
-90.3499
-91.1041
-91.9055
-92.7428
-93.5903
-94.4189
-95.2104
-95.9687
-96.71
-97.4535
-98.205
-98.9432
-99.6187
-100.155
-100.464
-100.457
-100.05
-99.1686
-97.7454
-95.7277
-93.0773
-89.7785
-85.8464
-81.3231
-76.2666
-70.7469
-64.8267
-58.5599
-51.9919
-45.1667
-38.1316
-30.9402
-23.6556
-16.3394
-9.0483
-1.83343
5.25784
12.177
18.8722
25.2916
31.3878
37.1286
42.5061
47.5328
52.2348
56.6392
60.7613
64.6003
68.1418
71.3727
74.2859
76.8898
79.2057
81.2582
83.0636
84.6313
85.9625
87.0558
87.9164
88.56
89.0086
89.2869
89.4211
89.4318
89.34
89.1659
88.9288
88.6385
88.2941
87.8789
87.36
86.6997
85.8672
84.8509
83.6613
82.3281
80.8853
79.3591
77.7596
76.0797
74.3033
72.416
70.4193
68.3325
66.193
64.0455
61.9299
59.8699
57.8664
55.8986
53.9358
51.9463
49.9151
47.8469
45.7644
43.7013
41.69
39.7515
37.8887
36.0861
34.3179
32.5587
30.7895
29.0105
27.2399
25.5081
23.8489
22.2849
20.8232
19.4555
18.1596
16.9075
15.6753
14.4425
13.1911
11.9038
10.5652
9.16247
7.68807
6.15386
4.58088
3.00149
1.44747
-0.0609943
-1.52871
-2.98352
-4.46738
-6.02046
-7.66695
-9.40478
-11.2077
-13.0312
-14.834
-16.588
-18.2856
-19.9378
-21.564
-23.1859
-24.8202
-26.4756
-28.1565
-29.8666
-31.6081
-33.3796
-35.1768
-36.9891
-38.8059
-40.6169
-42.4224
-44.2325
-46.058
-47.9081
-49.779
-51.6527
-53.5016
-55.3005
-57.0324
-58.6956
-60.2999
-61.8614
-63.3991
-64.9237
-66.4393
-67.9483
-69.4472
-70.933
-72.4007
-73.8431
-75.2535
-76.6286
-77.9677
-79.2772
-80.5717
-81.8673
-83.1735
-84.49
-85.8036
-87.0892
-88.3172
-89.4645
-90.5249
-91.507
-92.4354
-93.34
-94.2481
-95.172
-96.1103
-97.0481
-97.9645
-98.8423
-99.6722
-100.457
-101.206
-101.935
-102.665
-103.414
-104.197
-105.021
-105.885
-106.773
-107.655
-108.502
-109.287
-110.002
-110.658
-111.283
-111.912
-112.576
-113.29
-114.045
-114.807
-115.516
-116.09
-116.44
-116.472
-116.109
-115.295
-114.004
-112.226
-109.962
-107.21
-103.954
-100.173
-95.8469
-90.986
-85.6349
-79.8754
-73.813
-67.5522
-61.1727
-54.7135
-48.1807
-41.567
-34.8726
-28.1241
-21.3816
-14.728
-8.24947
-2.01585
3.92792
9.56808
14.9125
19.9788
24.7829
29.3314
33.6177
37.6239
41.3274
44.7068
47.7503
50.4585
52.8465
54.9411
56.778
58.3949
59.8253
61.0934
62.2148
63.1971
64.039
64.7381
65.2907
65.6925
65.9382
66.0282
65.9627
65.7469
65.3924
64.9144
64.3372
63.6816
62.9686
62.2112
61.4127
60.5629
59.6388
58.6103
57.4461
56.1233
54.632
52.9814
51.1965
49.3155
47.3834
45.444
43.5342
41.6819
39.901
38.1899
36.5348
34.9108
33.2922
31.6599
30.0094
28.3539
26.7271
25.1697
23.7181
22.3978
21.2117
20.1444
19.1625
18.2322
17.3207
16.4061
15.4803
14.5385
13.5848
12.619
11.6398
10.6419
9.61861
8.56363
7.47302
6.34427
5.17903
3.98089
2.75442
1.50467
0.233169
-1.06257
-2.38637
-3.74327
-5.13426
-6.55422
-7.98895
-9.41947
-10.8275
-12.1987
-13.5291
-14.8282
-16.113
-17.4033
-18.7142
-20.0543
-21.4193
-22.7949
-24.1698
-25.5312
-26.8755
-28.2054
-29.5272
-30.8461
-32.1634
-33.4739
-34.773
-36.0551
-37.3216
-38.5835
-39.8565
-41.1602
-42.5094
-43.9029
-45.3258
-46.7458
-48.1231
-49.4173
-50.6009
-51.6657
-52.6248
-53.508
-54.353
-55.194
-56.056
-56.9528
-57.8845
-58.8417
-59.8101
-60.7735
-61.7114
-62.6024
-63.4262
-64.1728
-64.8414
-65.4449
-66.0072
-66.553
-67.0989
-67.6465
-68.1874
-68.7076
-69.1994
-69.6633
-70.1124
-70.5656
-71.0371
-71.5354
-72.0578
-72.599
-73.1525
-73.7156
-74.2887
-74.8707
-75.4571
-76.0414
-76.618
-77.1848
-77.7514
-78.3339
-78.9469
-79.5949
-80.2663
-80.9327
-81.5564
-82.0957
-82.5128
-82.77
-82.8196
-82.6039
-82.0469
-81.0657
-79.5808
-77.5343
-74.9018
-71.693
-67.9481
-63.7223
-59.0794
-54.0747
-48.7555
-43.16
-37.3242
-31.2916
-25.1097
-18.8355
-12.5268
-6.23803
-0.0160565
6.10348
12.0945
17.9359
23.6051
29.0799
34.3306
39.3255
44.0309
48.4167
52.4579
56.1372
59.4444
62.3794
64.9512
67.1789
69.0906
70.7187
72.105
73.2864
74.2986
75.1662
75.9022
76.5046
76.956
77.2327
77.3073
77.1674
76.8186
76.2893
75.621
74.8552
74.0217
73.1249
72.1463
71.0544
69.8212
68.4352
66.9073
65.2678
63.5547
61.7972
60.007
58.1804
56.3055
54.3731
52.3925
50.3853
48.3816
46.4062
44.4646
42.5452
40.6229
38.6757
36.6933
34.6852
32.6777
30.7032
28.7926
26.9672
25.2415
23.6214
22.1082
20.6951
19.3651
18.0904
16.8355
15.5633
14.2485
12.8844
11.4846
10.0755
8.68684
7.33588
6.02376
4.73439
3.44497
2.13265
0.782981
-0.605859
-2.02616
-3.46697
-4.91981
-6.38274
-7.85769
-9.35022
-10.8627
-12.3903
-13.9225
-15.4473
-16.9548
-18.4464
-19.9337
-21.4338
-22.9619
-24.5234
-26.1106
-27.7058
-29.292
-30.8632
-32.4246
-33.9909
-35.5747
-37.1766
-38.7871
-40.3877
-41.9647
-43.5156
-45.055
-46.6058
-48.1866
-49.8005
-51.4316
-53.0539
-54.637
-56.1646
-57.641
-59.0853
-60.5243
-61.9795
-63.4594
-64.9546
-66.4484
-67.9199
-69.3535
-70.7404
-72.0786
-73.3743
-74.6333
-75.8669
-77.0912
-78.3209
-79.5652
-80.8202
-82.066
-83.2699
-84.3939
-85.4119
-86.3234
-87.1578
-87.9674
-88.8086
-89.7199
-90.7058
-91.7362
-92.753
-93.6954
-94.5227
-95.2258
-95.8309
-96.3868
-96.953
-97.5755
-98.2811
-99.0702
-99.9212
-100.796
-101.657
-102.476
-103.233
-103.931
-104.579
-105.177
-105.711
-106.131
-106.361
-106.3
-105.85
-104.928
-103.484
-101.5
-98.9829
-95.9585
-92.4559
-88.505
-84.1366
-79.3862
-74.2944
-68.9087
-63.2804
-57.4616
-51.5007
-45.4441
-39.3359
-33.2153
-27.1203
-21.0861
-15.146
-9.33584
-3.69054
1.75412
6.96289
11.9064
16.5655
20.9305
25.0007
28.7847
32.2918
35.5333
38.519
41.259
43.7644
46.0445
48.1055
49.9535
51.5895
53.0142
54.2305
55.2498
56.0873
56.7648
57.3024
57.7176
58.0173
58.2021
58.2729
58.2341
58.096
57.8734
57.5777
57.2091
56.7537
56.187
55.4842
54.6333
53.6428
52.5435
51.378
50.18
48.9641
47.7159
46.3964
44.9599
43.3705
41.6238
39.7526
37.8163
35.8902
34.0439
32.3191
30.7201
29.2188
27.7658
26.3074
24.804
23.2423
21.634
20.0101
18.4061
16.8538
15.3712
13.9654
12.6372
11.3857
10.2082
9.10208
8.05845
7.05677
6.06616
5.05108
3.98318
2.84886
1.65329
0.42265
-0.806558
-1.99679
-3.12241
-4.17548
-5.16744
-6.12121
-7.07165
-8.05249
-9.09082
-10.1967
-11.3672
-12.5826
-13.8152
-15.0374
-16.2318
-17.3999
-18.5632
-19.7565
-21.0165
-22.3641
-23.8007
-25.3046
-26.8375
-28.3624
-29.8568
-31.3199
-32.767
-34.2202
-35.6949
-37.1926
-38.6961
-40.1798
-41.6234
-43.0169
-44.3629
-45.676
-46.968
-48.2483
-49.5201
-50.786
-52.0494
-53.3246
-54.6304
-55.9781
-57.3677
-58.7808
-60.1846
-61.5425
-62.8276
-64.0299
-65.1539
-66.2156
-67.2313
-68.2084
-69.1506
-70.0595
-70.9427
-71.8161
-72.6975
-73.6041
-74.5373
-75.4862
-76.4307
-77.349
-78.2268
-79.0616
-79.8636
-80.646
-81.4204
-82.1912
-82.9528
-83.6954
-84.4121
-85.1054
-85.7794
-86.453
-87.1452
-87.8691
-88.6292
-89.4178
-90.2101
-90.9715
-91.6572
-92.216
-92.5893
-92.7172
-92.5319
-91.9636
-90.9469
-89.4249
-87.3594
-84.7335
-81.561
-77.8813
-73.7508
-69.2357
-64.4
-59.2993
-53.9763
-48.4678
-42.8077
-37.0378
-31.2049
-25.3658
-19.5715
-13.8598
-8.2522
-2.75032
2.65644
7.96999
13.1749
18.2315
23.0768
27.6426
31.8716
35.7357
39.2366
42.4086
45.2977
47.944
50.3735
52.5896
54.5849
56.3513
57.8925
59.232
60.4086
61.4617
62.4196
63.2895
64.0537
64.6818
65.1442
65.424
65.5223
65.4604
65.2663
64.9704
64.5946
64.1553
63.6586
63.1092
62.5113
61.8632
61.1586
60.3823
59.5115
58.5223
57.3974
56.131
54.7311
53.2233
51.6356
49.9986
48.3391
46.6747
45.0149
43.364
41.724
40.0954
38.4795
36.8797
35.3013
33.7505
32.2313
30.7458
29.291
27.8596
26.4426
25.0302
23.6213
22.2218
20.8497
19.5294
18.283
17.1253
16.0536
15.0474
14.074
13.0963
12.0817
11.0123
9.88544
8.71282
7.51551
6.31703
5.13731
3.9841
2.85751
1.74517
0.628236
-0.515898
-1.70506
-2.94694
-4.23927
-5.56852
-6.91511
-8.26149
-9.59594
-10.9174
-12.233
-13.5557
-14.8954
-16.2602
-17.6483
-19.0539
-20.4641
-21.8682
-23.2596
-24.6324
-25.9942
-27.3599
-28.7481
-30.1824
-31.6789
-33.2421
-34.8585
-36.4998
-38.1277
-39.7016
-41.193
-42.5904
-43.9062
-45.1659
-46.4023
-47.6433
-48.9011
-50.169
-51.427
-52.6489
-53.8136
-54.9171
-55.9694
-56.9914
-58.008
-59.0342
-60.0703
-61.1058
-62.1275
-63.1268
-64.1034
-65.0709
-66.0412
-67.0189
-67.9992
-68.9631
-69.8896
-70.7676
-71.6003
-72.4024
-73.1947
-73.9942
-74.8034
-75.6105
-76.3941
-77.1372
-77.8333
-78.4917
-79.1311
-79.7724
-80.4302
-81.1008
-81.7688
-82.4062
-82.9865
-83.4925
-83.9168
-84.2564
-84.5081
-84.6523
-84.6413
-84.3987
-83.8259
-82.819
-81.2883
-79.1792
-76.4778
-73.2156
-69.4523
-65.261
-60.7126
-55.8668
-50.7716
-45.4695
-40.0005
-34.4109
-28.7477
-23.0557
-17.371
-11.7158
-6.10141
-0.537244
4.96703
10.3906
15.6984
20.8461
25.7839
30.4675
34.8635
38.9508
42.7247
46.1927
49.3683
52.2681
54.9068
57.296
59.4466
61.3658
63.0643
64.5559
65.8523
66.9677
67.9152
68.7047
69.3456
69.8496
70.2309
70.5078
70.6992
70.8214
70.8839
70.8823
70.8012
70.6108
70.2812
69.7822
69.0982
68.2333
67.2126
66.0762
64.8722
63.6483
62.4359
61.2492
60.0788
58.8982
57.6714
56.3594
54.9341
53.3878
51.7359
50.0129
48.269
46.554
44.9066
43.3447
41.8629
40.4377
39.0406
37.6486
36.2547
34.8703
33.5165
32.2151
30.9726
29.7797
28.6114
27.4401
26.2505
25.0444
23.8475
22.6951
21.6231
20.6512
19.7783
18.9774
18.2093
17.4329
16.6131
15.7341
14.7987
13.8202
12.8188
11.8091
10.7935
9.76659
8.71307
7.61833
6.47431
5.28213
4.0527
2.80267
1.5507
0.309385
-0.916819
-2.13516
-3.36151
-4.617
-5.9233
-7.29638
-8.74351
-10.257
-11.8219
-13.4116
-14.9959
-16.5462
-18.0436
-19.4814
-20.8685
-22.2266
-23.5809
-24.9541
-26.3614
-27.803
-29.2693
-30.7456
-32.213
-33.6591
-35.0768
-36.4647
-37.8305
-39.1842
-40.5373
-41.8949
-43.2556
-44.6113
-45.9447
-47.2397
-48.4866
-49.6848
-50.8413
-51.9693
-53.0762
-54.1609
-55.2126
-56.212
-57.1447
-58.0092
-58.8218
-59.6142
-60.4211
-61.2664
-62.1523
-63.0595
-63.9483
-64.7807
-65.5325
-66.2023
-66.8175
-67.418
-68.0466
-68.7267
-69.4517
-70.1795
-70.8358
-71.3297
-71.568
-71.4698
-70.9777
-70.0572
-68.6926
-66.8767
-64.605
-61.8695
-58.6651
-54.9916
-50.8632
-46.3125
-41.3941
-36.1786
-30.7464
-25.1764
-19.533
-13.8628
-8.18821
-2.51045
3.1747
8.86684
14.5503
20.1788
25.6824
30.981
35.9976
40.6765
44.9911
48.9478
52.5728
55.8989
58.9502
61.7426
64.2794
66.5576
68.5788
70.3561
71.9055
73.248
74.4035
75.3796
76.1787
76.7972
77.2318
77.4831
77.5592
77.479
77.2601
76.9253
76.4938
75.9755
75.3771
74.7
73.941
73.0962
72.1655
71.1469
70.0392
68.8444
67.563
66.197
64.7517
63.2348
61.6581
60.0341
58.3748
56.6955
55.0112
53.336
51.6868
50.0769
48.5161
47.0088
45.5519
44.1354
42.7478
41.3828
40.0455
38.7511
37.527
36.4025
35.3939
34.5041
33.7094
32.9699
32.2409
31.485
30.6821
29.8347
28.9619
28.0888
27.2384
26.4252
25.6512
24.9099
24.1898
23.4775
22.7591
22.0211
21.2502
20.4365
19.5745
18.6605
17.6974
16.6901
15.6435
14.5599
13.4411
12.2858
11.0972
9.8786
8.63538
7.37308
6.09608
4.79952
3.47808
2.12326
0.72292
-0.733028
-2.2543
-3.84311
-5.49426
-7.19111
-8.90878
-10.6159
-12.2832
-13.8937
-15.4467
-16.9538
-18.4353
-19.915
-21.4089
-22.9208
-24.4464
-25.9668
-27.4569
-28.8913
-30.2515
-31.5293
-32.7309
-33.8732
-34.981
-36.0765
-37.1699
-38.257
-39.3231
-40.3479
-41.3162
-42.2319
-43.1142
-43.9942
-44.9012
-45.8517
-46.8409
-47.8446
-48.8283
-49.7631
-50.6353
-51.4469
-52.2138
-52.9583
-53.6949
-54.4255
-55.1367
-55.8007
-56.3778
-56.8209
-57.076
-57.0826
-56.7754
-56.086
-54.9488
-53.3084
-51.1294
-48.3995
-45.1333
-41.3675
-37.1522
-32.5405
-27.5862
-22.3311
-16.8127
-11.0657
-5.12741
0.960217
7.15058
13.3977
19.6525
25.8729
32.0207
38.056
43.9407
49.6392
55.1178
60.3519
65.3266
70.0342
74.4704
78.6305
82.5014
86.065
89.3003
92.1945
94.7484
96.9851
98.951
100.703
102.305
103.803
105.218
106.547
107.767
108.847
109.766
110.52
111.119
111.585
111.939
112.196
112.359
112.433
112.418
112.317
112.134
111.858
111.467
110.923
110.182
109.214
108.016
106.617
105.068
103.429
101.746
100.039
98.3032
96.5187
94.6656
92.736
90.737
88.6852
86.6014
84.5044
82.4071
80.327
78.2865
76.3163
74.4495
72.7143
71.1233
69.668
68.3196
67.0371
65.779
64.5122
63.2236
61.9161
60.6099
59.3288
58.0914
56.9053
55.765
54.6505
53.5418
52.4242
51.2946
50.1645
49.0467
47.9507
46.8693
45.7774
44.6328
43.3941
42.0314
40.5362
38.9267
37.2388
35.5155
33.7939
32.0946
30.4185
28.748
27.0566
25.3178
23.5136
21.6394
19.7095
17.746
15.7786
13.8314
11.9229
10.0619
8.24917
6.47502
4.72193
2.96472
1.17621
-0.671999
-2.59712
-4.59461
-6.64118
-8.69471
-10.7123
-12.6583
-14.5194
-16.3049
-18.043
-19.7639
-21.4872
-23.2182
-24.9482
-26.6618
-28.3442
-29.9856
-31.5831
-33.136
-34.641
-36.0964
-37.5026
-38.8628
-40.188
-41.4896
-42.7783
-44.065
-45.3583
-46.6687
-48.006
-49.3819
-50.8018
-52.2578
-53.7275
-55.1792
-56.5725
-57.8694
-59.0411
-60.0651
-60.9232
-61.5912
-62.0256
-62.163
-61.9239
-61.2244
-59.989
-58.1683
-55.7447
-52.7395
-49.1978
-45.1787
-40.7446
-35.9459
-30.8176
-25.3849
-19.6681
-13.6936
-7.50689
-1.16941
5.2442
11.6535
17.9848
24.1815
30.2047
36.0314
41.6472
47.0393
52.1922
57.0853
61.7019
66.0338
70.0816
73.8576
77.3736
80.6383
83.6483
86.3954
88.87
91.0782
93.0374
94.7854
96.3612
97.7982
99.1177
100.328
101.427
102.416
103.295
104.072
104.751
105.333
105.808
106.168
106.4
106.497
106.454
106.275
105.955
105.496
104.897
104.162
103.298
102.315
101.217
99.9948
98.6325
97.109
95.4133
93.5533
91.5654
89.4995
87.4142
85.3557
83.3492
81.3941
79.4719
77.5551
75.6202
73.6602
71.685
69.7179
67.7936
65.9408
64.1743
62.4926
60.8775
59.3033
57.7476
56.2002
54.6671
53.1666
51.72
50.343
49.0423
47.8102
46.6323
45.4965
44.3921
43.311
42.2435
41.1765
40.0919
38.9757
37.8248
36.6469
35.4604
34.282
33.1147
31.9456
30.7454
29.484
28.1436
26.7277
25.2562
23.7555
22.2454
20.7284
19.1877
17.6005
15.9531
14.2478
12.5048
10.7569
9.03097
7.33683
5.66351
3.98419
2.27224
0.509331
-1.30235
-3.14292
-4.98126
-6.78947
-8.55012
-10.2607
-11.9374
-13.6034
-15.282
-16.9882
-18.7173
-20.4496
-22.1463
-23.7645
-25.2712
-26.6497
-27.9085
-29.0776
-30.2035
-31.3328
-32.504
-33.7379
-35.0385
-36.394
-37.7836
-39.1863
-40.5837
-41.961
-43.3057
-44.6071
-45.8537
-47.0314
-48.1286
-49.1314
-50.0245
-50.7791
-51.3469
-51.6606
-51.6323
-51.1707
-50.1969
-48.6566
-46.5314
-43.8301
-40.5822
-36.8219
-32.5744
-27.8594
-22.6968
-17.1163
-11.1685
-4.92623
1.52263
8.08948
14.6985
21.2918
27.8299
34.2849
40.6277
46.827
52.8413
58.6281
64.145
69.3625
74.2619
78.8407
83.1106
87.0939
90.8157
94.3008
97.5583
100.587
103.376
105.905
108.161
110.143
111.858
113.333
114.595
115.67
116.58
117.335
117.939
118.394
118.703
118.872
118.913
118.84
118.67
118.419
118.101
117.723
117.279
116.749
116.104
115.303
114.31
113.098
111.66
110.007
108.166
106.172
104.062
101.867
99.607
97.2955
94.9436
92.5608
90.1598
87.7567
85.368
83.0002
80.6529
78.313
75.9624
73.5856
71.1808
68.7654
66.374
64.0521
61.8453
59.7819
57.8659
56.0751
54.3725
52.7142
51.0667
49.413
47.7556
46.1135
44.509
42.9629
41.4863
40.0768
38.7164
37.3771
36.0262
34.6293
33.1565
31.593
29.9388
28.2103
26.4391
24.6646
22.9217
21.2369
19.6143
18.0369
16.4706
14.8782
13.2293
11.5116
9.73479
7.92226
6.10049
4.28998
2.49326
0.693817
-1.13283
-3.01199
-4.95965
-6.97177
-9.02486
-11.0836
-13.1093
-15.0676
-16.9397
-18.7218
-20.4271
-22.0771
-23.6975
-25.3166
-26.9599
-28.6437
-30.3813
-32.1749
-34.0118
-35.8672
-37.7043
-39.4828
-41.1663
-42.736
-44.1934
-45.562
-46.8774
-48.1756
-49.4821
-50.8044
-52.1389
-53.4708
-54.7885
-56.0864
-57.3664
-58.6312
-59.8856
-61.1272
-62.348
-63.5393
-64.6911
-65.7956
-66.8513
-67.8638
-68.8472
-69.8201
-70.8031
-71.8104
-72.8356
-73.8459
-74.779
-75.5493
-76.0647
-76.2398
-76.0064
-75.3204
-74.1539
-72.4849
-70.2861
-67.5268
-64.173
-60.2034
-55.6189
-50.4524
-44.7687
-38.6519
-32.1969
-25.4921
-18.6101
-11.6048
-4.51713
2.62335
9.7828
16.9164
23.9665
30.8651
37.5434
43.9446
50.0351
55.8099
61.2821
66.4748
71.4007
76.0564
80.4211
84.4638
88.1579
91.4982
94.5014
97.2084
99.6687
101.929
104.02
105.955
107.724
109.315
110.716
111.923
112.942
113.792
114.492
115.056
115.495
115.812
116.006
116.072
116.005
115.805
115.469
114.996
114.387
113.636
112.741
111.694
110.495
109.141
107.632
105.968
104.154
102.197
100.113
97.9236
95.655
93.3297
90.9639
88.5627
86.1268
83.6545
81.1484
78.6227
76.104
73.6189
71.1919
68.8383
66.555
64.3275
62.135
59.9635
57.8101
55.6889
53.6247
51.6456
49.7699
47.9994
46.3161
44.6958
43.1108
41.5429
39.99
38.4591
36.9596
35.4933
34.0468
32.5968
31.1133
29.5737
27.9709
26.3133
24.615
22.8908
21.1472
19.3804
17.5781
15.7347
13.857
11.9595
10.0645
8.1904
6.34085
4.50335
2.65922
0.786534
-1.12194
-3.05737
-4.99788
-6.91992
-8.80114
-10.637
-12.4359
-14.2142
-15.9899
-17.781
-19.5976
-21.4472
-23.3314
-25.2455
-27.1769
-29.1053
-31.0052
-32.8578
-34.6538
-36.3998
-38.114
-39.8186
-41.5266
-43.2361
-44.9304
-46.585
-48.1751
-49.6844
-51.1078
-52.4517
-53.7262
-54.9421
-56.1116
-57.2476
-58.3649
-59.4782
-60.6038
-61.7526
-62.9291
-64.1277
-65.3376
-66.5403
-67.7151
-68.8398
-69.897
-70.8769
-71.779
-72.6142
-73.4004
-74.1586
-74.9103
-75.6718
-76.4573
-77.2778
-78.1377
-79.0396
-79.9774
-80.936
-81.8891
-82.81
-83.6712
-84.4514
-85.14
-85.7348
-86.2386
-86.6443
-86.9323
-87.063
-86.9738
-86.584
-85.8017
-84.5377
-82.7104
-80.2577
-77.1386
-73.3378
-68.8667
-63.7591
-58.0739
-51.8846
-45.2764
-38.3363
-31.1434
-23.7665
-16.2628
-8.68072
-1.07424
6.50253
13.9871
21.3177
28.4411
35.3207
41.9354
48.2773
54.3433
60.1275
65.62
70.8069
75.6731
80.2075
84.4068
88.2731
91.8154
95.0497
97.9944
100.669
103.093
105.278
107.229
108.95
110.446
111.729
112.827
113.772
114.598
115.33
115.974
116.517
116.932
117.186
117.258
117.138
116.834
116.369
115.771
115.07
114.278
113.395
112.401
111.26
109.929
108.376
106.585
104.565
102.354
100
97.5599
95.0763
92.5783
90.0785
87.5813
85.0893
82.6054
80.1375
77.6944
75.2808
72.8988
70.5439
68.2093
65.8873
63.5751
61.2764
59.002
56.7663
54.5864
52.4733
50.428
48.4408
46.4957
44.5743
42.666
40.769
38.8967
37.0694
35.3048
33.6119
31.9858
30.4073
28.8478
27.2827
25.6909
24.0626
22.394
20.6824
18.9248
17.1165
15.2503
13.3242
11.3441
9.32242
7.27713
5.23003
3.19884
1.19258
-0.792839
-2.76741
-4.74943
-6.75536
-8.79423
-10.8632
-12.9531
-15.0518
-17.1492
-19.2429
-21.3375
-23.4394
-25.5494
-27.6584
-29.7457
-31.7867
-33.7615
-35.665
-37.5095
-39.3234
-41.1371
-42.971
-44.8279
-46.6943
-48.5414
-50.3408
-52.0748
-53.7392
-55.3428
-56.9011
-58.4322
-59.9489
-61.4581
-62.9616
-64.4595
-65.9489
-67.4248
-68.8853
-70.3262
-71.7409
-73.1228
-74.4632
-75.7502
-76.9695
-78.1099
-79.1611
-80.1217
-80.9947
-81.7921
-82.532
-83.2368
-83.9293
-84.6293
-85.3523
-86.1082
-86.8966
-87.7094
-88.5352
-89.3602
-90.1742
-90.9726
-91.7601
-92.5441
-93.339
-94.1504
-94.9791
-95.8143
-96.6406
-97.4438
-98.214
-98.956
-99.6847
-100.417
-101.163
-101.914
-102.643
-103.3
-103.826
-104.152
-104.211
-103.936
-103.255
-102.092
-100.368
-98.0112
-94.9698
-91.2277
-86.806
-81.7626
-76.1771
-70.1356
-63.717
-56.9857
-49.9937
-42.7866
-35.4078
-27.9072
-20.3365
-12.7527
-5.21171
2.23181
9.52275
16.6092
23.445
29.993
36.2221
42.1153
47.6626
52.8569
57.6924
62.1574
66.24
69.9304
73.2268
76.1401
78.698
80.9381
82.897
84.6106
86.0976
87.3618
88.3969
89.1982
89.768
90.1218
90.2902
90.3081
90.2069
90.0094
89.7204
89.3348
88.8406
88.2241
87.4753
86.5907
85.5708
84.4141
83.1267
81.7104
80.1727
78.5283
76.7919
74.9851
73.1239
71.2173
69.2638
67.2572
65.1854
63.0434
60.8389
58.5898
56.3204
54.0544
51.8096
49.5947
47.4162
45.2812
43.202
41.1964
39.2809
37.4626
35.7398
34.1003
32.5251
30.9973
29.5046
28.039
26.5924
25.1626
23.7442
22.3443
20.9766
19.6599
18.4099
17.2295
16.0975
14.976
13.8224
12.6069
11.3277
10.009
8.69571
7.42555
6.21276
5.04254
3.87533
2.66467
1.37329
-0.0127605
-1.48618
-3.0254
-4.61029
-6.22819
-7.87337
-9.54991
-11.2546
-12.9783
-14.7019
-16.4058
-18.0753
-19.7054
-21.3069
-22.9022
-24.5179
-26.177
-27.8873
-29.6446
-31.4285
-33.2133
-34.976
-36.7057
-38.4062
-40.0895
-41.772
-43.4624
-45.1586
-46.8476
-48.5139
-50.1416
-51.7209
-53.2479
-54.7211
-56.1392
-57.5015
-58.8027
-60.0501
-61.2507
-62.4181
-63.5677
-64.7132
-65.861
-67.0074
-68.1429
-69.2519
-70.3173
-71.3249
-72.2676
-73.1491
-73.9819
-74.7879
-75.5899
-76.4043
-77.233
-78.0658
-78.8846
-79.6696
-80.4137
-81.1265
-81.8304
-82.5478
-83.2938
-84.0651
-84.8404
-85.5896
-86.2852
-86.9109
-87.4703
-87.9729
-88.4249
-88.8168
-89.1084
-89.2307
-89.0863
-88.5668
-87.567
-85.9984
-83.8026
-80.9538
-77.4553
-73.3359
-68.639
-63.4172
-57.728
-51.6317
-45.1944
-38.4873
-31.5811
-24.5455
-17.4425
-10.32
-3.21771
3.83133
10.7955
17.6331
24.2956
30.7294
36.8827
42.7156
48.2062
53.3485
58.1469
62.6083
66.7355
70.5254
73.9693
77.0629
79.808
82.2175
84.3156
86.129
87.6856
89.0098
90.1186
91.0274
91.7494
92.2967
92.6818
92.9177
93.0145
92.978
92.8132
92.5181
92.0901
91.5284
90.8304
89.9967
89.031
87.9338
86.7033
85.3371
83.8312
82.1871
80.4176
78.5453
76.601
74.618
72.6222
70.6262
68.6304
66.6256
64.5996
62.5443
60.4601
58.3567
56.2482
54.1503
52.0791
50.0493
48.0757
46.1728
44.352
42.6243
40.9904
39.4394
37.9538
36.5078
35.0718
33.6233
32.1472
30.6424
29.1245
27.6219
26.1676
24.792
23.5076
22.3088
21.1692
20.0474
18.9007
17.6979
16.4264
15.0933
13.719
12.3312
10.9508
9.58299
8.22125
6.84755
5.44025
3.98272
2.47362
0.919991
-0.661868
-2.25651
-3.85489
-5.45594
-7.06829
-8.70308
-10.3646
-12.0507
-13.7559
-15.4747
-17.2073
-18.9651
-20.7625
-22.6121
-24.5135
-26.4525
-28.4029
-30.333
-32.2181
-34.0438
-35.8057
-37.5064
-39.148
-40.7324
-42.2617
-43.7373
-45.1706
-46.5719
-47.9542
-49.3224
-50.6759
-52.0077
-53.3062
-54.5615
-55.771
-56.9401
-58.0809
-59.2111
-60.3487
-61.5079
-62.6941
-63.8958
-65.091
-66.2459
-67.3248
-68.3055
-69.1855
-69.9871
-70.7481
-71.5134
-72.3188
-73.1779
-74.0866
-75.0239
-75.9642
-76.8848
-77.7711
-78.6207
-79.4324
-80.2121
-80.9577
-81.6593
-82.2966
-82.8272
-83.1844
-83.2864
-83.038
-82.3437
-81.1227
-79.3118
-76.8763
-73.8041
-70.1052
-65.8083
-60.9595
-55.6151
-49.8389
-43.6961
-37.2464
-30.5417
-23.6322
-16.5712
-9.41757
-2.23875
4.89808
11.936
18.8338
25.567
32.1164
38.4599
44.5625
50.3757
55.847
60.9304
65.6087
69.89
73.8016
77.3855
80.6738
83.6861
86.4233
88.872
91.0182
92.851
94.3716
95.5957
96.5499
97.2643
97.7706
98.0961
98.2597
98.2768
98.1626
97.933
97.6062
97.1981
96.7217
96.1781
95.5606
94.8562
94.0486
93.1275
92.0856
90.9196
89.6242
88.1941
86.6197
84.8946
83.0188
80.9971
78.844
76.5751
74.2087
71.761
69.2437
66.6716
64.0564
61.4136
58.7582
56.1044
53.4657
50.855
48.2834
45.76
43.2882
40.8653
38.4832
36.1333
33.8089
31.5135
29.2648
27.0879
25.0113
23.0553
21.2256
19.5104
17.8836
16.3136
14.7744
13.2486
11.7312
10.2219
8.7224
7.22994
5.73444
4.2207
2.67899
1.10163
-0.502003
-2.11719
-3.72676
-5.31734
-6.88492
-8.44312
-10.0137
-11.6224
-13.2886
-15.0181
-16.8013
-18.6207
-20.4534
-22.2809
-24.0965
-25.9033
-27.7084
-29.5174
-31.3263
-33.126
-34.9054
-36.6565
-38.3784
-40.082
-41.7789
-43.4768
-45.1702
-46.8492
-48.4984
-50.1071
-51.6751
-53.2087
-54.7188
-56.2132
-57.6937
-59.1543
-60.5938
-62.0111
-63.4102
-64.7975
-66.1753
-67.5381
-68.8726
-70.1636
-71.4024
-72.5891
-73.7357
-74.861
-75.9818
-77.1055
-78.2303
-79.3495
-80.4516
-81.5288
-82.579
-83.5999
-84.587
-85.5325
-86.4293
-87.2744
-88.0744
-88.8491
-89.6262
-90.4265
-91.259
-92.1012
-92.8968
-93.5644
-94.0011
-94.0998
-93.7658
-92.9264
-91.5328
-89.5582
-86.992
-83.8318
-80.0772
-75.7333
-70.8145
-65.3484
-59.3882
-53.0065
-46.292
-39.3383
-32.2294
-25.036
-17.8053
-10.5723
-3.36785
3.77614
10.8162
17.7019
24.379
30.7945
36.9017
42.6605
48.0408
53.0186
57.5836
61.7361
65.4996
68.9078
71.9996
74.8098
77.3597
79.649
81.6629
83.3792
84.7804
85.8671
86.6619
87.2002
87.5314
87.6982
87.7291
87.6417
87.436
87.1121
86.6711
86.1213
85.4758
84.7449
83.9323
83.0317
82.0262
80.895
79.6208
78.1933
76.6102
74.8799
73.0124
71.0232
68.9251
66.7326
64.4621
62.1349
59.7743
57.4068
55.057
52.7478
50.4981
48.3157
46.1988
44.1337
42.0942
40.052
37.9847
35.8826
33.7586
31.6393
29.5552
27.531
25.5735
23.6722
21.8064
19.9589
18.1281
16.3302
14.5952
12.9539
11.4228
9.99682
8.64782
7.33043
5.99985
4.62182
3.18446
1.69456
0.174552
-1.34703
-2.84583
-4.30884
-5.74222
-7.16399
-8.60227
-10.0906
-11.653
-13.3013
-15.0296
-16.8135
-18.6224
-20.4239
-22.1916
-23.9126
-25.5876
-27.2273
-28.8508
-30.4821
-32.1484
-33.8748
-35.6769
-37.56
-39.5099
-41.4932
-43.4694
-45.3969
-47.2459
-49.0097
-50.7094
-52.3833
-54.0776
-55.8317
-57.664
-59.5674
-61.5089
-63.4384
-65.3062
-67.0727
-68.7215
-70.2616
-71.718
-73.1293
-74.5312
-75.9433
-77.3705
-78.8055
-80.2318
-81.6323
-82.9938
-84.3096
-85.5762
-86.7912
-87.9549
-89.0694
-90.1368
-91.1703
-92.181
-93.1778
-94.1684
-95.1533
-96.1285
-97.0899
-98.0339
-98.9645
-99.8913
-100.827
-101.781
-102.756
-103.739
-104.702
-105.596
-106.355
-106.905
-107.16
-107.035
-106.448
-105.323
-103.595
-101.214
-98.1497
-94.4002
-89.988
-84.9668
-79.4075
-73.3927
-66.9989
-60.2954
-53.3289
-46.1358
-38.7517
-31.2167
-23.5857
-15.9314
-8.33338
-0.871365
6.38682
13.3934
20.1245
26.5771
32.7599
38.6784
44.3315
49.7016
54.7532
59.4453
63.7399
67.6143
71.0671
74.116
76.7938
79.1356
81.1681
82.9123
84.382
85.5979
86.585
87.3821
88.0312
88.5709
89.0271
89.4124
89.7271
89.9661
90.1218
90.1888
90.1605
90.0253
89.7659
89.3606
88.7857
88.0215
87.0568
85.8921
84.54
83.0227
81.3692
79.6127
77.7801
75.8935
73.9587
71.9684
69.9026
67.734
65.4431
63.0264
60.5059
57.9244
55.3459
52.8368
50.4503
48.2143
46.1249
44.1473
42.2322
40.3295
38.4083
36.4666
34.5319
32.648
30.8573
29.1895
27.6531
26.2353
24.9145
23.6703
22.4872
21.3559
20.2695
19.2165
18.1841
17.1571
16.1255
15.0871
14.0448
13.0039
11.966
10.9267
9.87272
8.79066
7.66765
6.49877
5.28542
4.0344
2.75933
1.47647
0.2003
-1.05802
-2.29649
-3.5228
-4.75825
-6.02982
-7.36074
-8.76151
-10.228
-11.7395
-13.2693
-14.7966
-16.3095
-17.8148
-19.3297
-20.871
-22.4509
-24.065
-25.6978
-27.3241
-28.9194
-30.4619
-31.9423
-33.3606
-34.7299
-36.068
-37.3929
-38.723
-40.0686
-41.4273
-42.7857
-44.1218
-45.4093
-46.6254
-47.7518
-48.7815
-49.7184
-50.5753
-51.3724
-52.1369
-52.8991
-53.6891
-54.532
-55.4419
-56.4207
-57.4539
-58.5149
-59.57
-60.5871
-61.544
-62.4355
-63.2741
-64.0805
-64.881
-65.6866
-66.4885
-67.2513
-67.9159
-68.4114
-68.6609
-68.5919
-68.1371
-67.2397
-65.8478
-63.9206
-61.4291
-58.3632
-54.734
-50.5719
-45.9208
-40.8289
-35.3438
-29.5074
-23.3618
-16.9536
-10.343
-3.60395
3.17907
9.92452
16.5626
23.0413
29.3298
35.4113
41.2772
46.9093
52.286
57.3763
62.1456
66.5599
70.5956
74.2379
77.484
80.3433
82.8343
84.9857
86.8315
88.4119
89.7653
90.9256
91.9173
92.7532
93.4376
93.9686
94.3503
94.5897
94.7033
94.7047
94.6045
94.4018
94.0863
93.6447
93.0633
92.3379
91.4718
90.4742
89.3496
88.1022
86.7293
85.2241
83.5826
81.8012
79.8793
77.8154
75.6122
73.2759
70.8208
68.2708
65.6593
63.0204
60.3836
57.77
55.1892
52.642
50.1289
47.6537
45.2231
42.844
40.5184
38.2392
35.9897
33.7547
31.5264
29.3087
27.1199
24.9831
22.9228
20.9505
19.0658
17.2581
15.5149
13.8311
12.2071
10.6511
9.17289
7.77402
6.43873
5.13697
3.82576
2.46139
1.01154
-0.532067
-2.14999
-3.80228
-5.4411
-7.02808
-8.55314
-10.0383
-11.5342
-13.1013
-14.7912
-16.6254
-18.584
-20.6111
-22.6361
-24.594
-26.4486
-28.1965
-29.8676
-31.504
-33.144
-34.8067
-36.4911
-38.1865
-39.8797
-41.5612
-43.2328
-44.9011
-46.5675
-48.226
-49.862
-51.4588
-53.0048
-54.5006
-55.9594
-57.4016
-58.8489
-60.3136
-61.793
-63.2765
-64.7485
-66.1934
-67.6043
-68.982
-70.3279
-71.6426
-72.9177
-74.1419
-75.3004
-76.3865
-77.4029
-78.3683
-79.3062
-80.2395
-81.1874
-82.1528
-83.1277
-84.0998
-85.0552
-85.9833
-86.8827
-87.756
-88.6104
-89.4453
-90.2499
-90.9919
-91.6119
-92.0255
-92.127
-91.806
-90.9669
-89.5416
-87.4927
-84.8164
-81.5326
-77.6663
-73.2365
-68.2568
-62.7423
-56.7169
-50.2305
-43.3616
-36.2143
-28.9016
-21.53
-14.1863
-6.92589
0.217743
7.22864
14.0915
20.7837
27.267
33.4922
39.4046
44.9563
50.1115
54.8556
59.1963
63.1547
66.7589
70.0375
73.0133
75.7008
78.1149
80.265
82.1622
83.8194
85.256
86.4863
87.5243
88.3813
89.06
89.5641
89.8956
90.0619
90.0752
89.9572
89.7281
89.4068
