-4110.4
-4110.4
-4112.7
-4114.41
-4113.21
-4111.87
-4112.67
-4112.7
-4109.58
-4106.09
-4104.5
-4101.92
-4096
-4089.61
-4085.08
-4079.66
-4071.14
-4062.53
-4056.37
-4050.07
-4041.71
-4034.4
-4030.64
-4028.25
-4025.53
-4025.51
-4030.71
-4038.89
-4048.25
-4061.62
-4081.25
-4104.57
-4129.33
-4157.88
-4191.91
-4228.25
-4264.01
-4300.87
-4339.86
-4377.13
-4409.26
-4437.27
-4461.5
-4477.96
-4483.03
-4477.44
-4461.51
-4431.38
-4383.71
-4319.68
-4240.21
-4142.15
-4023.08
-3885.14
-3730.36
-3556.78
-3363.19
-3152.99
-2929.48
-2691.91
-2440.29
-2179.04
-1912.22
-1640.12
-1363.52
-1087.19
-815.502
-548.846
-287.912
-37.1853
199.439
422.225
631.294
823.11
994.844
1147.92
1283.69
1399.86
1494.86
1571.38
1631.86
1675.22
1701.04
1712.71
1713.35
1702.59
1680.49
1650.7
1616.53
1577.58
1533.77
1488.49
1444.63
1401.32
1357.93
1317.21
1281.4
1248.97
1218.59
1192.37
1171.89
1155.11
1140.34
1129.09
1122.49
1118.31
1114.67
1112.96
1114.23
1116.27
1117.25
1118.67
1121.72
1124.37
1124.96
1125.18
1126.42
1126.82
1124.88
1122.44
1120.96
1118.72
1114.42
1109.78
1106.19
1102.05
1096.04
1089.85
1084.84
1079.38
1074.95
1070.89
1065.71
1060.05
1055.42
1051.14
1045.73
1039.86
1035
1030.52
1024.88
1018.8
1013.89
1009.36
1003.63
997.495
992.577
988.088
982.524
976.62
971.757
967.343
962.031
956.427
951.91
947.887
943.007
937.878
933.874
930.406
926.081
921.563
918.33
915.667
912.113
908.413
906.046
904.296
901.782
899.177
897.728
896.896
895.428
893.874
893.468
893.652
893.16
892.521
892.954
893.88
893.98
893.808
894.663
895.829
895.912
895.527
895.964
896.497
895.803
894.432
893.471
892.367
889.933
886.628
883.555
880.181
875.344
869.531
863.877
857.884
850.395
841.975
833.889
825.569
815.842
805.38
795.478
785.605
774.683
763.35
752.731
742.461
731.581
720.638
710.756
701.55
692.048
682.773
674.82
667.777
660.608
653.835
648.594
644.335
639.932
635.93
633.427
631.833
630.053
628.545
628.209
628.57
628.619
628.709
629.726
631.189
632.087
632.775
634.153
635.744
636.522
636.898
637.865
638.878
638.89
638.391
638.395
638.388
637.402
635.903
634.773
633.64
631.656
629.217
627.218
625.294
622.6
619.541
617.012
614.65
611.58
608.237
605.576
603.151
600.035
596.711
594.126
591.824
588.924
585.859
583.426
581.278
578.615
575.79
573.592
571.669
569.222
566.595
564.577
562.813
560.474
557.938
556.053
554.394
552.095
549.581
547.711
546.054
543.8
541.337
539.394
537.649
535.377
532.899
530.949
529.204
526.942
524.484
522.564
520.861
518.635
516.231
514.438
512.867
510.742
508.45
506.781
505.343
503.399
501.299
499.71
498.336
496.508
494.516
493.017
491.716
489.942
487.979
486.489
485.17
483.33
481.282
479.738
478.337
476.363
474.167
472.465
470.901
468.802
466.495
464.592
462.83
460.606
458.198
456.223
454.421
452.191
449.81
447.894
446.185
444.067
441.834
440.146
438.685
436.798
434.816
433.395
432.209
430.636
428.969
427.761
426.76
425.403
423.924
422.868
421.98
420.69
419.235
418.16
417.207
415.793
414.176
412.949
411.808
410.149
408.268
406.76
405.333
403.424
401.309
399.502
397.788
395.667
393.374
391.429
389.62
387.451
385.157
383.257
381.539
379.492
377.366
375.718
374.281
372.517
370.7
369.378
368.283
366.898
365.467
364.452
363.642
362.568
361.424
360.667
360.083
359.196
358.203
357.557
357.043
356.177
355.17
354.515
353.957
352.991
351.862
351.07
350.363
349.271
348.019
347.034
346.133
344.895
343.51
342.408
341.405
340.087
338.642
337.497
336.471
335.136
333.695
332.609
331.653
330.375
329.003
327.994
327.124
325.962
324.713
323.765
322.945
321.864
320.691
319.811
319.051
318.02
316.886
316.038
315.301
314.275
313.143
312.321
311.602
310.568
309.425
308.591
307.858
306.836
305.71
304.838
304.063
303.03
301.896
301.017
300.234
299.196
298.056
297.168
296.375
295.316
294.156
293.275
292.484
291.402
290.215
289.307
288.486
287.39
286.191
285.215
284.317
283.173
281.922
280.885
279.918
278.696
277.357
276.219
275.138
273.776
272.283
271.003
269.758
268.196
266.485
264.97
263.473
261.663
259.694
257.859
256.028
253.901
251.611
249.456
247.309
244.879
242.301
239.875
237.481
234.821
232.046
229.486
226.993
224.261
221.46
218.918
216.491
213.889
211.264
208.894
206.669
204.325
201.985
199.926
198.026
196.015
194.009
192.272
190.683
188.955
187.209
185.73
184.361
182.805
181.196
179.815
178.511
177.001
175.41
173.982
172.602
171.025
169.355
167.838
166.37
164.708
162.965
161.395
159.897
158.223
156.501
155.008
153.62
152.078
150.524
149.234
148.082
146.824
145.584
144.591
143.747
142.826
141.928
141.276
140.766
140.166
139.57
139.194
138.933
138.546
138.132
137.925
137.797
137.496
137.135
136.95
136.815
136.495
136.095
135.818
135.572
135.147
134.634
134.239
133.874
133.331
132.706
132.204
131.739
131.1
130.389
129.833
129.322
128.639
127.895
127.317
126.797
126.126
125.408
124.833
124.321
123.683
123.004
122.475
122.014
121.432
120.813
120.343
119.943
119.416
118.853
118.458
118.129
117.661
117.156
116.815
116.537
116.126
115.674
115.35
115.078
114.682
114.235
113.905
113.614
113.188
112.697
112.311
111.95
111.437
110.85
110.375
109.917
109.29
108.585
107.989
107.411
106.677
105.874
105.163
104.478
103.664
102.795
102.034
101.317
100.488
99.6234
98.8858
98.2106
97.4415
96.6564
96.0246
95.47
94.8251
94.1774
93.6994
93.3074
92.8414
92.3774
92.0582
91.8189
91.5138
91.2022
91.0254
90.9145
90.7208
90.5018
90.3969
90.3348
90.1591
89.9337
89.8088
89.7003
89.4466
89.1195
88.8685
88.6127
88.2018
87.703
87.2463
86.7717
86.1461
85.4296
84.7569
84.072
83.2463
82.3431
81.5015
80.6685
79.7161
78.7151
77.816
76.957
76.0056
75.0405
74.213
73.46
72.6549
71.8686
71.2261
70.6803
70.1134
69.5813
69.2052
68.9317
68.6366
68.3717
68.2545
68.2255
68.1552
68.0935
68.1631
68.2912
68.3396
68.3647
68.4888
68.6387
68.6835
68.6758
68.7206
68.7631
68.687
68.539
68.4274
68.3016
68.0499
67.7227
67.4314
67.1301
66.7086
66.2234
65.7973
65.3763
64.8468
64.2735
63.7831
63.3194
62.7751
62.2092
61.7268
61.2876
60.7948
60.2946
59.89
59.5374
59.1369
58.7323
58.4243
58.1663
57.8516
57.5272
57.299
57.1106
56.8485
56.5658
56.3675
56.1981
55.9525
55.6786
55.4669
55.2754
55.0105
54.7135
54.4762
54.2593
53.9726
53.6574
53.4073
53.1839
52.894
52.5839
52.3551
52.1599
51.9006
51.6279
51.441
51.2922
51.0865
50.8693
50.7259
50.6163
50.4543
50.2744
50.1581
50.065
49.9065
49.7172
49.5784
49.4487
49.2378
48.9829
48.7713
48.5567
48.248
47.8876
47.5643
47.2342
46.815
46.3467
45.9085
45.4693
44.9548
44.4036
43.8973
43.4064
42.8614
42.299
41.7995
41.3364
40.8366
40.3425
39.943
39.6014
39.2386
38.9014
38.6746
38.5229
38.3727
38.2624
38.2639
38.3476
38.4419
38.5794
38.8287
39.1579
39.4942
39.8654
40.3383
40.8767
41.4025
41.9433
42.5686
43.2325
43.8513
44.4545
45.1099
45.7694
46.3503
46.8795
47.4128
47.9111
48.3013
48.6033
48.8731
49.0759
49.1426
49.0957
48.9934
48.8082
48.4742
48.0229
47.5268
46.9558
46.2484
45.4461
44.6283
43.7711
42.8234
41.8271
40.8546
39.8946
38.9048
37.9237
37.0227
36.1908
35.3822
34.6339
34.0154
33.5087
33.0604
32.7027
32.5011
32.4262
32.4132
32.4921
32.7216
33.0643
33.4534
33.909
34.4752
35.1185
35.7765
36.4595
37.2097
37.9934
38.7495
39.4884
40.2522
41.0111
41.7018
42.344
42.9914
43.6085
44.1323
44.5901
45.0386
45.4457
45.7556
45.9942
46.2104
46.3824
46.4606
46.4677
46.4555
46.4
46.2523
46.034
45.795
45.5134
45.1396
44.6964
44.2371
43.7356
43.1398
42.4776
41.804
41.0938
40.2987
39.4469
38.5876
37.7048
36.7568
35.7697
34.7937
33.8154
32.7938
31.7574
30.7577
29.7811
28.7884
27.8065
26.8888
26.0172
25.1469
24.3065
23.5468
22.8477
22.1666
21.5251
20.9622
20.4614
19.9786
19.5323
19.1626
18.8467
18.5391
18.2548
18.0295
17.8427
17.6477
17.4611
17.3217
17.206
17.0631
16.9167
16.8051
16.7085
16.5819
16.4461
16.3361
16.2366
16.1128
15.9779
15.8698
15.7707
15.6471
15.5108
15.4002
15.2957
15.161
15.009
14.8813
14.7531
14.587
14.3958
14.2231
14.0431
13.8228
13.5746
13.3382
13.0961
12.8219
12.532
12.2708
12.0285
11.7813
11.5573
11.4042
11.3251
11.2996
11.3675
11.5855
11.9584
12.4704
13.1632
14.0916
15.2614
16.6522
18.3
20.2466
22.4894
25.0005
27.7939
30.8913
34.2698
37.8787
41.7077
45.7563
49.9733
54.28
58.6436
63.0433
67.4026
71.6222
75.6547
79.466
82.972
86.0746
88.7236
90.8843
92.4891
93.461
93.7675
93.402
92.3266
90.4971
87.9225
84.6388
80.6502
75.9586
70.6161
64.7046
58.2692
51.3494
44.0377
36.4499
28.6596
20.7296
12.7702
4.90251
-2.79001
-10.2423
-17.3553
-24.023
-30.1819
-35.7923
-40.786
-45.0898
-48.6809
-51.5627
-53.7086
-55.088
-55.725
-55.6671
-54.9299
-53.5241
-51.5099
-48.9673
-45.9431
-42.4753
-38.6443
-34.5458
-30.2366
-25.7613
-21.1993
-16.64
-12.1348
-7.71544
-3.44608
0.605653
4.4082
7.95361
11.2018
14.1071
16.6682
18.9057
20.8038
22.3452
23.5485
24.4508
25.0604
25.3839
25.4492
25.3094
24.979
24.4658
23.809
23.0618
22.2412
21.3491
20.425
19.5137
18.6281
17.7619
16.9463
16.218
15.5782
15.0104
14.5359
14.1778
13.9298
13.7643
13.695
13.734
13.8706
14.0728
14.3454
14.6936
15.1039
15.5413
16.0088
16.5132
17.0379
17.5497
18.0522
18.56
19.0536
19.5088
19.9275
20.3247
20.688
20.9976
21.2602
21.4976
21.6992
21.85
21.9591
22.051
22.1179
22.1466
22.1478
22.1462
22.1353
22.101
22.0543
22.0197
21.9881
21.9429
21.8951
21.8621
21.8377
21.8044
21.7703
21.7521
21.7413
21.7202
21.6948
21.6818
21.6711
21.6448
21.6092
21.5823
21.5533
21.506
21.447
21.3929
21.3363
21.2609
21.1752
21.0941
21.0128
20.9161
20.8138
20.723
20.6385
20.5474
20.458
20.3867
20.3306
20.2786
20.2386
20.2297
20.2465
20.277
20.3309
20.4274
20.5609
20.7183
20.9098
21.1507
21.4369
21.7563
22.1145
22.5248
22.9802
23.4645
23.9817
24.5391
25.1289
25.7332
26.3515
26.9918
27.6396
28.2711
28.8861
29.4903
30.0683
30.5981
31.0772
31.5088
31.8814
32.1763
32.3929
32.5395
32.607
32.58
32.4636
32.2751
32.0072
31.6471
31.2091
30.7131
30.1597
29.5462
28.8871
28.2056
27.5068
26.7906
26.0737
25.3793
24.7143
24.0794
23.4892
22.9623
22.5053
22.1159
21.805
21.5867
21.4629
21.4257
21.4818
21.6448
21.907
22.253
22.6861
23.2141
23.8259
24.5042
25.2469
26.0567
26.9211
27.8211
28.7521
29.714
30.6945
31.6743
32.6482
33.6192
34.5728
35.4917
36.3717
37.2175
38.0163
38.7521
39.4244
40.0416
40.5927
41.0653
41.4617
41.7921
42.0513
42.2314
42.3375
42.3814
42.3638
42.2815
42.143
41.9659
41.752
41.5009
41.2243
40.9415
40.657
40.3716
40.0976
39.8542
39.645
39.4679
39.3349
39.2599
39.2452
39.2847
39.3862
39.5606
39.8028
40.101
40.4567
40.8739
41.3427
41.8487
42.3854
42.9525
43.5348
44.1119
44.6768
45.23
45.7523
46.2235
46.6357
46.9868
47.263
47.4481
47.5368
47.5295
47.4185
47.1945
46.8562
46.4114
45.8567
45.185
44.4046
43.5292
42.5606
41.4985
40.3541
39.1463
37.8792
36.5558
35.1886
33.7959
32.384
30.9554
29.5223
28.1017
26.6974
25.3083
23.9438
22.6162
21.3264
20.0702
18.8517
17.6794
16.549
15.4499
14.3854
13.3576
12.3621
11.3892
10.437
9.50755
8.59399
7.68695
6.78349
5.88536
4.98812
4.08183
3.16783
2.25268
1.33125
0.394629
-0.552167
-1.4999
-2.45181
-3.41449
-4.38102
-5.34237
-6.29822
-7.2517
-8.19708
-9.12405
-10.0335
-10.93
-11.8068
-12.6535
-13.4721
-14.2661
-15.032
-15.7619
-16.4574
-17.1231
-17.7567
-18.3492
-18.9059
-19.4342
-19.9309
-20.3917
-20.8185
-21.2185
-21.589
-21.9269
-22.2326
-22.5116
-22.7618
-22.9806
-23.1667
-23.3257
-23.4539
-23.5442
-23.5979
-23.6221
-23.6097
-23.5541
-23.4554
-23.3171
-23.1367
-22.9074
-22.6317
-22.3152
-21.9563
-21.5496
-21.1009
-20.6218
-20.1102
-19.5648
-18.9945
-18.4114
-17.8192
-17.2215
-16.627
-16.0479
-15.4915
-14.9617
-14.4682
-14.0259
-13.6372
-13.3031
-13.0317
-12.835
-12.7112
-12.6569
-12.6752
-12.7689
-12.9344
-13.1645
-13.4549
-13.8054
-14.2056
-14.6412
-15.1072
-15.6006
-16.108
-16.6145
-17.113
-17.5981
-18.0609
-18.489
-18.8778
-19.2258
-19.5269
-19.7731
-19.9646
-20.1057
-20.1944
-20.2282
-20.2112
-20.1519
-20.0518
-19.9117
-19.7378
-19.5386
-19.3185
-19.0787
-18.8251
-18.5681
-18.307
-18.0383
-17.7682
-17.5032
-17.2418
-16.9813
-16.722
-16.4655
-16.2106
-15.951
-15.6879
-15.4247
-15.158
-14.8827
-14.6011
-14.3204
-14.0374
-13.7476
-13.4575
-13.1742
-12.8996
-12.6342
-12.3844
-12.1589
-11.9608
-11.7918
-11.6582
-11.5689
-11.525
-11.5241
-11.572
-11.6735
-11.8277
-12.033
-12.2865
-12.5875
-12.9321
-13.3105
-13.7204
-14.161
-14.6219
-15.0911
-15.5637
-16.0359
-16.4992
-16.944
-17.3647
-17.7595
-18.1211
-18.4415
-18.7188
-18.9555
-19.1466
-19.2863
-19.3774
-19.4249
-19.4277
-19.383
-19.2954
-19.1718
-19.0124
-18.8155
-18.5865
-18.3309
-18.0496
-17.7406
-17.4081
-17.0579
-16.69
-16.3024
-15.8986
-15.4835
-15.0572
-14.6189
-14.1716
-13.7182
-13.2622
-12.8054
-12.3513
-11.9067
-11.4745
-11.0543
-10.6543
-10.2844
-9.94637
-9.64182
-9.37742
-9.15943
-8.99104
-8.87323
-8.80929
-8.80183
-8.852
-8.95768
-9.11763
-9.33244
-9.5973
-9.90486
-10.2508
-10.6323
-11.0407
-11.468
-11.9058
-12.3478
-12.7864
-13.211
-13.6164
-14.0024
-14.3594
-14.6801
-14.9626
-15.2067
-15.4109
-15.5726
-15.6945
-15.7816
-15.836
-15.8588
-15.8566
-15.8381
-15.8074
-15.7673
-15.7256
-15.6915
-15.6685
-15.6576
-15.6651
-15.6952
-15.7502
-15.8299
-15.9349
-16.0678
-16.2246
-16.3998
-16.5907
-16.7962
-17.0092
-17.2215
-17.4285
-17.626
-17.8075
-17.9668
-18.0975
-18.1972
-18.2604
-18.2822
-18.2601
-18.1944
-18.0835
-17.9264
-17.7239
-17.4784
-17.1936
-16.8711
-16.5158
-16.1324
-15.7269
-15.3024
-14.8661
-14.4257
-13.9862
-13.5499
-13.1235
-12.7138
-12.3244
-11.9599
-11.6217
-11.3149
-11.0392
-10.7935
-10.5786
-10.398
-10.2473
-10.1228
-10.0219
-9.94333
-9.88172
-9.83004
-9.7843
-9.73774
-9.68742
-9.62488
-9.54655
-9.44941
-9.32699
-9.17081
-8.98002
-8.75075
-8.48221
-8.17296
-7.82033
-7.42386
-6.98567
-6.50662
-5.98825
-5.43689
-4.854
-4.24189
-3.6064
-2.95498
-2.29127
-1.61783
-0.941561
-0.269869
0.394047
1.04744
1.68601
2.30513
2.90261
3.47724
4.02713
4.54989
5.04561
5.51531
5.95863
6.37544
6.76585
7.13181
7.47326
7.78888
8.07896
8.34496
8.58529
8.79621
8.97755
9.13046
9.24982
9.33083
9.37153
9.37072
9.32373
9.22528
9.07304
8.86521
8.59935
8.27292
7.8851
7.43715
6.92903
6.36027
5.73488
5.05827
4.3344
3.56838
2.76677
1.93888
1.09156
0.231507
-0.631009
-1.48482
-2.32237
-3.13675
-3.91851
-4.6607
-5.35449
-5.99604
-6.57844
-7.09746
-7.54936
-7.93516
-8.25162
-8.49602
-8.67253
-8.78438
-8.8352
-8.82925
-8.77073
-8.66828
-8.52525
-8.34806
-8.14158
-7.91526
-7.67255
-7.42036
-7.16241
-6.90825
-6.65869
-6.41357
-6.18058
-5.96544
-5.76926
-5.59131
-5.43571
-5.30165
-5.19381
-5.11151
-5.05625
-5.02905
-5.02996
-5.05239
-5.1023
-5.17795
-5.28086
-5.40414
-5.5513
-5.71587
-5.89981
-6.09547
-6.30153
-6.50848
-6.71413
-6.90666
-7.08011
-7.22477
-7.32828
-7.3777
-7.35769
-7.25708
-7.05703
-6.74222
-6.29447
-5.69901
-4.93867
-4.00135
-2.87017
-1.53954
0.00569037
1.77305
3.76655
5.98204
8.41893
11.0695
13.9217
16.9568
20.153
23.4825
26.9143
30.4103
33.931
37.4336
40.8691
44.1858
47.3332
50.2593
52.9113
55.2359
57.1844
58.7109
59.7719
60.3296
60.3517
59.814
58.6982
56.9928
54.6979
51.8223
48.3824
44.4032
39.9189
34.9737
29.6175
23.908
17.9086
11.6866
5.31749
-1.12267
-7.55711
-13.9073
-20.0973
-26.0547
-31.7083
-36.9913
-41.8455
-46.2199
-50.0694
-53.3573
-56.0577
-58.1538
-59.6374
-60.51
-60.7813
-60.4704
-59.6054
-58.2207
-56.3572
-54.0609
-51.384
-48.3807
-45.1075
-41.6245
-37.9874
-34.2504
-30.4702
-26.6993
-22.9855
-19.3708
-15.8952
-12.5901
-9.48595
-6.60671
-3.96692
-1.57841
0.553557
2.43068
4.05528
5.43772
6.58709
7.52226
8.25682
8.81147
9.20419
9.4594
9.59452
9.63135
9.58792
9.48111
9.32886
9.14492
8.94349
8.73496
8.52978
8.32943
8.14465
7.97899
7.83584
7.71514
7.61809
7.54023
7.48388
7.44337
7.42002
7.40918
7.41145
7.41922
7.43637
7.45975
7.49062
7.52425
7.56364
7.60692
7.65648
7.71086
7.77291
7.84665
7.93006
8.02312
8.12691
8.24365
8.37224
8.51414
8.66724
8.8323
9.00833
9.19666
9.39437
9.6047
9.82242
10.0465
10.2756
10.5122
10.7521
10.9944
11.2374
11.4814
11.7245
11.9661
12.205
12.4393
12.6692
12.8933
13.1115
13.3233
13.5276
13.7232
13.9088
14.0837
14.2462
14.395
14.5284
14.6442
14.7428
14.8236
14.8847
14.9266
14.9478
14.9466
14.9236
14.8786
14.813
14.7273
14.6224
14.5013
14.3652
14.2155
14.0552
13.8871
13.7145
13.5399
13.3672
13.2013
13.0437
12.8971
12.765
12.6495
12.554
12.4793
12.4286
12.4048
12.4079
12.4362
12.4919
12.5751
12.6857
12.8218
12.9836
13.1707
13.3812
13.6147
13.8685
14.1416
14.4316
14.7368
15.0556
15.3873
15.7298
16.0796
16.4373
16.8026
17.1741
17.5501
17.9298
18.3116
18.6958
19.0804
19.4653
19.8508
20.2352
20.6167
20.9956
21.3717
21.7442
22.1134
22.4779
22.8376
23.1921
23.5411
23.8847
24.2243
24.5588
24.8885
25.214
25.5367
25.8567
26.1736
26.4892
26.8036
27.1189
27.4356
27.7546
28.077
28.4035
28.7358
29.0741
29.4186
29.7706
30.1291
30.4958
30.8713
31.2554
31.6491
32.0516
32.4622
32.8813
33.3091
33.7444
34.1876
34.6369
35.0899
35.5468
36.0085
36.4722
36.9378
37.4025
37.8643
38.3219
38.7746
39.2198
39.6572
40.0833
40.4949
40.8918
41.2725
41.6356
41.9812
42.3061
42.6104
42.8926
43.1522
43.3894
43.607
43.8027
43.9775
44.1321
44.2686
44.388
44.492
44.5824
44.6636
44.736
44.802
44.8627
44.9213
44.9779
45.0325
45.0874
45.1454
45.2045
45.2633
45.3217
45.38
45.4351
45.4853
45.5273
45.5596
45.5777
45.5773
45.5557
45.5088
45.4326
45.3249
45.1802
44.9945
44.7655
44.4911
44.1676
43.7937
43.3666
42.885
42.3478
41.7562
41.1086
40.4051
39.6466
38.834
37.9689
37.0539
36.0895
35.0768
34.0193
32.919
31.7788
30.6012
29.389
28.1452
26.8724
25.5732
24.2512
22.9096
21.5509
20.18
18.7985
17.4087
16.0146
14.6195
13.2264
11.8391
10.4605
9.09469
7.74335
6.40779
5.09208
3.79763
2.52801
1.2861
0.0723624
-1.11261
-2.26697
-3.38914
-4.4794
-5.53803
-6.56431
-7.55794
-8.5198
-9.44924
-10.3475
-11.216
-12.0546
-12.864
-13.6443
-14.3969
-15.1206
-15.8139
-16.4778
-17.1124
-17.7166
-18.29
-18.8312
-19.3382
-19.8107
-20.2469
-20.646
-21.0081
-21.3309
-21.6142
-21.8568
-22.0583
-22.2188
-22.3386
-22.4183
-22.4602
-22.4647
-22.435
-22.3721
-22.2789
-22.1581
-22.0151
-21.8514
-21.6696
-21.4744
-21.2681
-21.0558
-20.8432
-20.6316
-20.4247
-20.2245
-20.033
-19.8527
-19.6874
-19.5365
-19.4016
-19.2828
-19.181
-19.0947
-19.0248
-18.9686
-18.9239
-18.8902
-18.8673
-18.852
-18.8432
-18.8377
-18.8329
-18.8273
-18.8201
-18.8082
-18.7901
-18.7642
-18.7285
-18.6829
-18.6287
-18.5631
-18.4864
-18.3979
-18.2954
-18.1815
-18.0575
-17.9234
-17.7826
-17.6334
-17.4744
-17.3089
-17.1382
-16.9636
-16.7868
-16.6085
-16.4296
-16.2514
-16.0764
-15.9039
-15.7344
-15.5688
-15.4067
-15.2495
-15.0999
-14.9559
-14.8162
-14.6818
-14.5515
-14.426
-14.305
-14.1878
-14.0733
-13.9615
-13.8498
-13.7396
-13.631
-13.5231
-13.4156
-13.3083
-13.2023
-13.0963
-12.9906
-12.8858
-12.7825
-12.6816
-12.5852
-12.4935
-12.4081
-12.3292
-12.2554
-12.1905
-12.1365
-12.094
-12.0628
-12.045
-12.0428
-12.0552
-12.0822
-12.1241
-12.1816
-12.2538
-12.3393
-12.4382
-12.5501
-12.6736
-12.8074
-12.9502
-13.0997
-13.255
-13.4151
-13.5778
-13.7418
-13.9049
-14.0635
-14.2183
-14.3686
-14.5124
-14.649
-14.7766
-14.8935
-14.9999
-15.0944
-15.1774
-15.2492
-15.309
-15.3568
-15.3925
-15.4164
-15.4291
-15.4298
-15.4203
-15.4014
-15.3737
-15.3388
-15.2964
-15.2477
-15.1932
-15.1342
-15.0716
-15.0071
-14.9406
-14.8723
-14.8038
-14.7356
-14.6688
-14.6045
-14.543
-14.4857
-14.4325
-14.3833
-14.3393
-14.3004
-14.2675
-14.2424
-14.2241
-14.2132
-14.2097
-14.2137
-14.2253
-14.2447
-14.2722
-14.3069
-14.3497
-14.4015
-14.4612
-14.5283
-14.6033
-14.6845
-14.7728
-14.8668
-14.967
-15.0736
-15.1855
-15.3022
-15.4227
-15.5443
-15.6676
-15.7923
-15.9167
-16.0404
-16.1611
-16.2769
-16.3868
-16.4899
-16.5838
-16.6668
-16.7366
-16.7907
-16.8282
-16.8471
-16.8463
-16.8243
-16.7794
-16.7099
-16.6161
-16.4981
-16.3555
-16.1882
-15.9974
-15.7847
-15.5516
-15.3003
-15.034
-14.7578
-14.4732
-14.1841
-13.8954
-13.6104
-13.335
-13.0746
-12.834
-12.6184
-12.4319
-12.2797
-12.1649
-12.0899
-12.0584
-12.0738
-12.1369
-12.2489
-12.4099
-12.6206
-12.8785
-13.1805
-13.5248
-13.9076
-14.3255
-14.7743
-15.2489
-15.7463
-16.259
-16.7811
-17.3077
-17.8334
-18.3527
-18.8606
-19.3522
-19.8235
-20.2702
-20.6875
-21.0736
-21.4278
-21.7466
-22.0284
-22.2723
-22.4775
-22.6436
-22.7712
-22.8605
-22.9131
-22.9292
-22.9083
-22.8531
-22.7648
-22.6447
-22.4938
-22.3139
-22.1067
-21.8729
-21.6139
-21.3308
-21.0221
-20.6915
-20.3404
-19.9699
-19.5832
-19.1796
-18.7575
-18.3212
-17.8728
-17.4132
-16.9446
-16.4681
-15.9846
-15.497
-15.0061
-14.5149
-14.0249
-13.538
-13.0553
-12.5791
-12.1104
-11.6508
-11.2015
-10.7634
-10.3371
-9.92373
-9.52466
-9.13986
-8.77023
-8.41588
-8.07652
-7.75332
-7.44921
-7.16242
-6.89319
-6.64275
-6.41158
-6.20129
-6.0144
-5.85064
-5.71135
-5.59788
-5.51112
-5.45355
-5.427
-5.43282
-5.47278
-5.54773
-5.65916
-5.80814
-5.99574
-6.22185
-6.48425
-6.78503
-7.12519
-7.50206
-7.91462
-8.361
-8.83781
-9.34357
-9.8778
-10.4347
-11.0106
-11.6018
-12.2029
-12.8112
-13.4221
-14.0318
-14.6375
-15.2338
-15.8155
-16.3798
-16.9246
-17.4455
-17.9407
-18.4068
-18.8426
-19.2457
-19.6166
-19.9527
-20.2525
-20.5177
-20.7498
-20.9485
-21.1163
-21.2536
-21.3654
-21.4503
-21.5126
-21.5523
-21.5756
-21.5808
-21.5743
-21.5543
-21.524
-21.4851
-21.4395
-21.3893
-21.3356
-21.282
-21.2292
-21.1807
-21.1351
-21.0982
-21.0692
-21.0531
-21.0507
-21.0652
-21.0955
-21.1466
-21.216
-21.3088
-21.42
-21.5555
-21.7103
-21.887
-22.0768
-22.2819
-22.4938
-22.709
-22.9162
-23.1077
-23.2706
-23.3918
-23.4571
-23.4479
-23.3481
-23.1354
-22.7927
-22.2957
-21.6274
-20.7624
-19.6812
-18.3648
-16.8006
-14.9715
-12.8689
-10.4839
-7.81608
-4.86592
-1.64287
1.84066
5.56388
9.50168
13.6206
17.8841
22.2471
26.661
31.0711
35.4195
39.6448
43.6824
47.4677
50.9342
54.0172
56.6552
58.7894
60.3671
61.3403
61.6704
61.3273
60.2881
58.5421
56.0868
52.9313
49.0971
44.6159
39.5314
33.8991
27.7786
21.2388
14.3599
7.225
-0.0754603
-7.44924
-14.8031
-22.0461
-29.0849
-35.8321
-42.2047
-48.1272
-53.5316
-58.3578
-62.5572
-66.0921
-68.9343
-71.067
-72.4866
-73.1984
-73.2211
-72.5829
-71.3208
-69.4806
-67.1158
-64.2869
-61.0566
-57.4921
-53.6628
-49.6381
-45.4877
-41.2784
-37.0745
-32.934
-28.9131
-25.0604
-21.418
-18.0193
-14.8939
-12.0628
-9.53972
-7.32956
-5.43396
-3.84985
-2.56177
-1.55212
-0.800702
-0.281258
0.0305932
0.167037
0.153797
0.0255095
-0.193913
-0.474226
-0.792145
-1.12069
-1.44191
-1.7373
-1.99262
-2.19554
-2.33811
-2.41766
-2.42934
-2.37506
-2.25599
-2.07741
-1.84536
-1.57031
-1.25816
-0.922765
-0.567642
-0.20759
0.156542
0.513807
0.864245
1.19767
1.51998
1.8278
2.1275
2.42101
2.71705
3.02124
3.34457
3.69755
4.08999
4.53545
5.04071
5.61679
6.2699
7.0093
7.83726
8.75825
9.76903
10.8676
12.0467
13.2989
14.6107
15.9704
17.3575
18.7526
20.1342
21.4789
22.7634
23.9662
25.0611
26.0247
26.8364
27.477
27.9299
28.1806
28.2198
28.0408
27.6413
27.0228
26.1921
25.1606
23.9417
22.5537
21.0184
19.36
17.6054
15.7811
13.9189
12.0495
10.2027
8.40893
6.69592
5.08715
3.60845
2.28062
1.12143
0.14617
-0.636072
-1.21906
-1.60008
-1.77898
-1.76181
-1.55555
-1.17226
-0.627945
0.0640799
0.887086
1.82165
2.84831
3.94764
5.09956
6.28554
7.48761
8.68947
9.87656
11.0355
12.1541
13.2237
14.2367
15.1888
16.0786
16.903
17.6617
18.3571
18.992
19.5707
20.0977
20.5785
21.0198
21.4266
21.8055
22.1618
22.4992
22.8245
23.142
23.4564
23.7751
24.0989
24.4338
24.7792
25.1375
25.5101
25.8974
26.3016
26.7231
27.1625
27.6177
28.0912
28.5813
29.089
29.6111
30.1491
30.6996
31.2634
31.8381
32.4226
33.0135
33.6102
34.209
34.8088
35.4077
36.0024
36.5923
37.174
37.7456
38.3059
38.8549
39.3898
39.9116
40.4187
40.9108
41.389
41.8543
42.3082
42.754
43.1923
43.6273
44.0596
44.4907
44.9243
45.3629
45.8089
46.2668
46.7362
47.2193
47.7156
48.2258
48.75
49.2887
49.8399
50.4026
50.9738
51.5518
52.1328
52.7153
53.2939
53.8649
54.4242
54.9682
55.4934
55.998
56.4774
56.9304
57.3531
57.7427
58.0986
58.4223
58.7112
58.9662
59.1874
59.3755
59.533
59.6643
59.7686
59.8486
59.9069
59.9444
59.965
59.9733
59.969
59.9541
59.9293
59.8972
59.8567
59.8087
59.7515
59.6851
59.6067
59.5138
59.4046
59.2777
59.1284
58.9543
58.7517
58.5169
58.2467
57.9387
57.589
57.1942
56.7525
56.2621
55.7212
55.1294
54.4851
53.7885
53.0395
52.2407
51.3921
50.4949
49.5514
48.5643
47.5361
46.4713
45.3712
44.2387
43.0772
41.8892
40.6789
39.4489
38.2026
36.9435
35.6742
34.3978
33.1166
31.8349
30.5534
29.2751
28.0013
26.7341
25.4759
24.2304
22.9983
21.7804
20.5797
19.3981
18.2377
17.1
15.9868
14.8995
13.8398
12.8088
11.8084
10.8391
9.90246
9.00099
8.13366
7.30121
6.5035
5.73855
5.00814
4.31165
3.64888
3.02119
2.42573
1.85927
1.3226
0.81511
0.334442
-0.121589
-0.553927
-0.964702
-1.35495
-1.72564
-2.07957
-2.41944
-2.74594
-3.06081
-3.36499
-3.66015
-3.9469
-4.22699
-4.50057
-4.77127
-5.03677
-5.29565
-5.54969
-5.79791
-6.04112
-6.28053
-6.5142
-6.74274
-6.96382
-7.17579
-7.379
-7.57194
-7.75441
-7.9251
-8.0825
-8.22536
-8.35296
-8.46459
-8.55918
-8.63579
-8.69324
-8.73255
-8.75115
-8.74986
-8.7264
-8.67881
-8.60741
-8.51466
-8.39734
-8.25553
-8.08772
-7.8905
-7.66674
-7.41865
-7.14385
-6.84338
-6.51666
-6.16564
-5.78989
-5.39205
-4.97259
-4.5348
-4.07998
-3.60993
-3.1294
-2.64379
-2.15647
-1.67163
-1.19491
-0.732184
-0.288967
0.128574
0.514407
0.861948
1.1659
1.42187
1.62298
1.76442
1.8417
1.85134
1.7903
1.65805
1.45232
1.17155
0.818873
0.397579
-0.0896769
-0.638959
-1.24396
-1.89769
-2.59252
-3.31996
-4.07013
-4.83396
-5.60002
-6.35798
-7.09647
-7.80513
-8.4733
-9.09044
-9.64845
-10.14
-10.5575
-10.8942
-11.1464
-11.3113
-11.3871
-11.3726
-11.2712
-11.0854
-10.8208
-10.4833
-10.0811
-9.62284
-9.11882
-8.57893
-8.0154
-7.43915
-6.86288
-6.30025
-5.76068
-5.25557
-4.79404
-4.3848
-4.0351
-3.74958
-3.53445
-3.39383
-3.32787
-3.3348
-3.41414
-3.56369
-3.77741
-4.04813
-4.3698
-4.73416
-5.1326
-5.55816
-5.99985
-6.44701
-6.89301
-7.32882
-7.74807
-8.14463
-8.51285
-8.84847
-9.14907
-9.41266
-9.63958
-9.83149
-9.99073
-10.1216
-10.228
-10.3157
-10.3898
-10.4549
-10.5189
-10.5913
-10.6752
-10.779
-10.9049
-11.0551
-11.2344
-11.4465
-11.6908
-11.9687
-12.2773
-12.6131
-12.9734
-13.3543
-13.7497
-14.1532
-14.5587
-14.9594
-15.3488
-15.7189
-16.0653
-16.3809
-16.6619
-16.9069
-17.1105
-17.2699
-17.3848
-17.4553
-17.4824
-17.4666
-17.4128
-17.3245
-17.2067
-17.0628
-16.9001
-16.7259
-16.544
-16.3602
-16.1792
-16.0053
-15.8424
-15.6938
-15.5615
-15.4458
-15.3486
-15.2702
-15.2084
-15.1628
-15.1295
-15.1061
-15.0882
-15.0712
-15.0523
-15.0286
-14.9956
-14.9485
-14.8853
-14.8041
-14.7028
-14.5803
-14.4362
-14.2708
-14.0851
-13.8808
-13.6598
-13.4236
-13.1769
-12.9234
-12.6665
-12.4084
-12.155
-11.9121
-11.6812
-11.4652
-11.2675
-11.0911
-10.937
-10.8064
-10.7001
-10.6188
-10.5621
-10.5297
-10.5194
-10.531
-10.5609
-10.6063
-10.6657
-10.7369
-10.8175
-10.9063
-10.9997
-11.0951
-11.191
-11.2864
-11.3794
-11.4689
-11.5542
-11.6342
-11.7104
-11.7834
-11.8532
-11.9208
-11.9871
-12.053
-12.1192
-12.1878
-12.2589
-12.3337
-12.4128
-12.4949
-12.5831
-12.6796
-12.7835
-12.8966
-13.0172
-13.1441
-13.278
-13.4183
-13.5648
-13.7161
-13.8727
-14.0338
-14.1993
-14.3697
-14.5431
-14.7173
-14.8935
-15.0734
-15.254
-15.4346
-15.6144
-15.7915
-15.9663
-16.1388
-16.3075
-16.4713
-16.6287
-16.7768
-16.9158
-17.046
-17.1634
-17.265
-17.3499
-17.4159
-17.4612
-17.4846
-17.4836
-17.4571
-17.4037
-17.3229
-17.2133
-17.0748
-16.9069
-16.7082
-16.4817
-16.2278
-15.9488
-15.6471
-15.3253
-14.9866
-14.6337
-14.2704
-13.9001
-13.5251
-13.15
-12.7774
-12.4116
-12.0559
-11.7127
-11.3836
-11.0714
-10.7791
-10.5064
-10.2519
-10.0171
-9.80222
-9.60491
-9.42219
-9.25363
-9.09947
-8.9548
-8.8161
-8.68154
-8.54768
-8.41281
-8.27486
-8.1315
-7.98192
-7.82405
-7.65643
-7.4801
-7.29548
-7.10343
-6.90621
-6.70592
-6.50391
-6.30493
-6.11513
-5.93645
-5.77184
-5.6271
-5.50664
-5.41545
-5.35848
-5.33865
-5.35983
-5.42487
-5.53656
-5.69687
-5.90681
-6.16661
-6.47546
-6.83252
-7.23731
-7.68619
-8.17598
-8.70287
-9.26154
-9.84795
-10.4566
-11.0823
-11.719
-12.3615
-13.0033
-13.64
-14.2701
-14.8859
-15.4822
-16.0558
-16.6049
-17.1254
-17.6144
-18.0711
-18.4967
-18.8884
-19.2463
-19.5708
-19.8652
-20.1287
-20.3627
-20.5696
-20.7495
-20.9065
-21.0448
-21.1647
-21.2709
-21.363
-21.446
-21.5194
-21.59
-21.6545
-21.716
-21.7742
-21.8317
-21.8889
-21.9447
-22.0021
-22.0612
-22.1232
-22.1869
-22.2548
-22.3247
-22.3996
-22.4777
-22.5608
-22.6475
-22.739
-22.8298
-22.9239
-23.0172
-23.1114
-23.2003
-23.2859
-23.3612
-23.4264
-23.4741
-23.5021
-23.4993
-23.4634
-23.3848
-23.2551
-23.0652
-22.8032
-22.4599
-22.0193
-21.4714
-20.7993
-19.9891
-19.028
-17.9055
-16.6073
-15.1253
-13.4475
-11.57
-9.48474
-7.1904
-4.68782
-1.98483
0.913019
3.99223
7.23632
10.6232
14.1273
17.7197
21.3647
25.0227
28.653
32.2111
35.6499
38.92
41.9716
44.7539
47.2189
49.3191
51.0104
52.253
53.0101
53.2497
52.949
52.0927
50.6699
48.6791
46.1279
43.0319
39.4157
35.3123
30.7628
25.8141
20.5228
14.9492
9.15971
3.22441
-2.78391
-8.79103
-14.7236
-20.5099
-26.0793
-31.3657
-36.3072
-40.8462
-44.9371
-48.5404
-51.6225
-54.1604
-56.1393
-57.5536
-58.4074
-58.7146
-58.494
-57.7724
-56.5863
-54.9775
-52.9908
-50.6738
-48.0808
-45.2653
-42.2821
-39.1829
-36.0222
-32.8505
-29.7136
-26.6511
-23.7034
-20.9017
-18.2749
-15.8443
-13.6267
-11.6327
-9.86851
-8.33536
-7.0285
-5.93733
-5.05214
-4.3561
-3.83363
-3.46416
-3.22859
-3.10191
-3.06633
-3.09869
-3.18117
-3.29626
-3.42553
-3.55441
-3.66874
-3.75556
-3.80769
-3.82059
-3.78735
-3.70964
-3.58202
-3.40577
-3.18284
-2.91881
-2.61652
-2.28526
-1.92754
-1.55329
-1.16593
-0.777412
-0.389336
-0.0105601
0.355373
0.698945
1.01941
1.30747
1.5652
1.78954
1.98005
2.13576
2.25702
2.34725
2.40648
2.43976
2.44769
2.43269
2.39985
2.35564
2.30257
2.24749
2.19358
2.14775
2.11266
2.09412
2.09424
2.11997
2.17079
2.24903
2.35626
2.49348
2.66059
2.85748
3.08227
3.33271
3.60675
3.90135
4.21328
4.53798
4.87221
5.21291
5.55498
5.8953
6.2295
6.55426
6.86681
7.16534
7.44773
7.71289
7.96025
8.18917
8.40151
8.59792
8.78133
8.95544
9.12195
9.28272
9.44322
9.60563
9.77489
9.95617
10.1511
10.3621
10.592
10.843
11.1158
11.4124
11.7315
12.07
12.4282
12.8058
13.1979
13.6011
14.0112
14.4228
14.8321
15.2359
15.6275
16.0006
16.3515
16.6767
16.9716
17.2315
17.4551
17.6408
17.7873
17.8934
17.9609
17.9921
17.9893
17.9562
17.8967
17.8149
17.7172
17.61
17.499
17.3898
17.2894
17.2023
17.1371
17.1009
17.097
17.129
17.2017
17.3184
17.4806
17.6903
17.9462
18.2472
18.5913
18.9758
19.3968
19.8508
20.3311
20.8284
21.3397
21.8586
22.378
22.8928
23.3953
23.878
24.3362
24.7642
25.158
25.5148
25.831
26.1054
26.3365
26.5251
26.6718
26.7782
26.8475
26.8827
26.889
26.8732
26.839
26.7931
26.7405
26.6864
26.6378
26.6015
26.5822
26.5843
26.6132
26.6731
26.7673
26.8982
27.0677
27.2781
27.5291
27.8213
28.1528
28.5221
28.9268
29.3649
29.832
30.3249
30.8399
31.3739
31.9216
32.4784
33.0402
33.6049
34.1663
34.7209
35.2648
35.7957
36.3096
36.8039
37.2762
37.7245
38.1477
38.5457
38.9169
39.2614
39.5794
39.8721
40.1397
40.3854
40.6091
40.8137
41.0003
41.1712
41.3282
41.4767
41.6161
41.7495
41.8775
42.0006
42.1207
42.2386
42.354
42.4653
42.5723
42.6733
42.7658
42.848
42.9146
42.9605
42.982
42.9732
42.9298
42.8472
42.7184
42.5392
42.3021
42.0023
41.6339
41.1925
40.6737
40.0758
39.3946
38.6279
37.7753
36.836
35.8126
34.708
33.5248
32.2664
30.9388
29.5488
28.103
26.6087
25.0744
23.5083
21.9203
20.323
18.7229
17.1283
15.5488
13.9942
12.4718
10.9882
9.55064
8.16481
6.83463
5.56313
4.35294
3.2047
2.11913
1.09446
0.128487
-0.779971
-1.63712
-2.4494
-3.22084
-3.95712
-4.66511
-5.351
-6.02186
-6.6837
-7.3431
-8.00666
-8.6785
-9.36294
-10.0637
-10.7832
-11.5232
-12.2855
-13.0685
-13.871
-14.6904
-15.5235
-16.3666
-17.2157
-18.0644
-18.9073
-19.7373
-20.5471
-21.3308
-22.0818
-22.7936
-23.4598
-24.0753
-24.6348
-25.1348
-25.5725
-25.9447
-26.2504
-26.4884
-26.6591
-26.7639
-26.8073
-26.7901
-26.715
-26.5873
-26.4138
-26.1981
-25.9452
-25.6616
-25.3566
-25.0322
-24.693
-24.3449
-23.9935
-23.6418
-23.2925
-22.9494
-22.6158
-22.2916
-21.9785
-21.6756
-21.3828
-21.0986
-20.8227
-20.5523
-20.2866
-20.0221
-19.7558
-19.4863
-19.2118
-18.9302
-18.6404
-18.3405
-18.0306
-17.7093
-17.3761
-17.0323
-16.6785
-16.317
-15.95
-15.5794
-15.2094
-14.8413
-14.479
-14.1255
-13.7832
-13.4566
-13.1481
-12.8612
-12.5996
-12.3647
-12.1609
-11.988
-11.8481
-11.7411
-11.6681
-11.6281
-11.6212
-11.6459
-11.6995
-11.7812
-11.8872
-12.0163
-12.1659
-12.3329
-12.514
-12.7059
-12.9055
-13.1096
-13.3143
-13.518
-13.7199
-13.9151
-14.1007
-14.2757
-14.4394
-14.5897
-14.7244
-14.844
-14.947
-15.0342
-15.1074
-15.1652
-15.2085
-15.2373
-15.2496
-15.2492
-15.2378
-15.2162
-15.1876
-15.1512
-15.1062
-15.0564
-15.0036
-14.9491
-14.8957
-14.8438
-14.7937
-14.7486
-14.7096
-14.6786
-14.6579
-14.648
-14.6499
-14.6646
-14.6928
-14.735
-14.7905
-14.8605
-14.9451
-15.0438
-15.1555
-15.2792
-15.4119
-15.5535
-15.7027
-15.8571
-16.0154
-16.1743
-16.3326
-16.4867
-16.6352
-16.7753
-16.9039
-17.0203
-17.1231
-17.2107
-17.2819
-17.3368
-17.3756
-17.398
-17.405
-17.3976
-17.3764
-17.3439
-17.305
-17.2591
-17.2068
-17.1522
-17.0993
-17.0495
-17.006
-16.9702
-16.9473
-16.9361
-16.9358
-16.9497
-16.9791
-17.0236
-17.0828
-17.1563
-17.2434
-17.3421
-17.4508
-17.5671
-17.6892
-17.8146
-17.9397
-18.0635
-18.1839
-18.2984
-18.4061
-18.5039
-18.5892
-18.6624
-18.7232
-18.7709
-18.8035
-18.8232
-18.8292
-18.8233
-18.8063
-18.7793
-18.7435
-18.6997
-18.6468
-18.587
-18.5214
-18.4485
-18.3685
-18.2795
-18.1795
-18.0676
-17.9407
-17.7973
-17.6362
-17.4529
-17.246
-17.0107
-16.7435
-16.4425
-16.1056
-15.7306
-15.3159
-14.8609
-14.3664
-13.8327
-13.264
-12.6614
-12.0262
-11.3655
-10.6862
-9.99451
-9.29709
-8.60336
-7.92315
-7.26515
-6.63959
-6.05555
-5.52201
-5.04872
-4.6438
-4.31558
-4.07155
-3.91788
-3.86033
-3.90119
-4.0417
-4.28245
-4.62478
-5.06325
-5.59492
-6.2118
-6.90361
-7.66449
-8.48697
-9.35754
-10.264
-11.1942
-12.1365
-13.0761
-13.9995
-14.8948
-15.7498
-16.5533
-17.2944
-17.9655
-18.5594
-19.0696
-19.4905
-19.8203
-20.0569
-20.2016
-20.2555
-20.2227
-20.107
-19.9146
-19.6515
-19.3256
-18.9469
-18.5209
-18.0551
-17.5585
-17.0387
-16.5029
-15.959
-15.4111
-14.8617
-14.3164
-13.7778
-13.2471
-12.7244
-12.2091
-11.6969
-11.188
-10.6789
-10.167
-9.64896
-9.12099
-8.57744
-8.01787
-7.43907
-6.84
-6.22032
-5.5803
-4.92071
-4.24411
-3.55364
-2.8539
-2.15036
-1.44844
-0.752527
-0.0722571
0.583825
1.2091
1.79333
2.33183
2.81731
3.24438
3.61025
3.90818
4.13338
4.28488
4.36051
4.36182
4.28913
4.1454
3.93369
3.65878
3.32515
2.93859
2.50508
2.03054
1.5199
0.980246
0.418122
-0.161416
-0.752481
-1.35185
-1.95607
-2.5628
-3.17074
-3.77818
-4.38362
-4.98783
-5.59109
-6.19441
-6.80095
-7.41004
-8.02326
-8.64135
-9.26415
-9.89323
-10.5286
-11.1696
-11.8146
-12.462
-13.1081
-13.7516
-14.3903
-15.0191
-15.6348
-16.2324
-16.8087
-17.3584
-17.8789
-18.3648
-18.8148
-19.2243
-19.5902
-19.9127
-20.1944
-20.4326
-20.629
-20.7844
-20.9032
-20.9857
-21.0392
-21.0628
-21.0608
-21.0365
-20.9986
-20.9467
-20.8849
-20.8162
-20.744
-20.6709
-20.595
-20.5224
-20.4517
-20.3878
-20.3272
-20.276
-20.236
-20.2067
-20.1861
-20.1775
-20.1771
-20.1898
-20.2142
-20.2521
-20.2994
-20.3593
-20.4272
-20.5031
-20.5787
-20.6538
-20.7142
-20.7596
-20.7781
-20.7608
-20.6943
-20.5632
-20.3522
-20.0407
-19.6118
-19.0422
-18.3128
-17.3999
-16.2856
-14.9466
-13.3684
-11.5309
-9.42437
-7.03503
-4.35834
-1.39169
1.85724
5.38222
9.16664
13.1895
17.42
21.8256
26.3641
30.9902
35.651
40.29
44.8477
49.2587
53.4549
57.3705
60.9391
64.0949
66.7752
68.9217
70.4825
71.4095
71.6623
71.212
70.0381
68.1299
65.4882
62.1242
58.0576
53.3255
47.9742
42.0565
35.6368
28.7869
21.5852
14.1191
6.4805
-1.23939
-8.94544
-16.5434
-23.9401
-31.0475
-37.7838
-44.0691
-49.8347
-55.0177
-59.5667
-63.4406
-66.6094
-69.0537
-70.7625
-71.7426
-72.0094
-71.5856
-70.5051
-68.8103
-66.5495
-63.78
-60.5611
-56.9596
-53.0448
-48.8835
-44.5434
-40.0925
-35.5953
-31.1139
-26.7051
-22.4209
-18.3054
-14.4007
-10.7379
-7.34614
-4.24652
-1.45183
1.03171
3.2025
5.06791
6.63439
7.9191
8.93687
9.71534
10.2715
10.6313
10.8204
10.8672
10.7962
10.6333
10.403
10.1301
9.83304
9.52888
9.23517
8.96182
8.72326
8.5233
8.37239
8.272
8.22724
8.23527
8.29719
8.40514
8.55934
8.75135
8.9792
9.23186
9.50816
9.79977
10.1034
10.4082
10.715
11.0136
11.3059
11.5862
11.8545
12.11
12.3514
12.58
12.795
13.0005
13.1941
13.3772
13.5522
13.7242
13.892
14.0596
14.227
14.3995
14.5752
14.7568
14.9442
15.1406
15.3441
15.5562
15.7755
16.0036
16.2376
16.4785
16.7236
16.9715
17.2213
17.4712
17.72
17.9654
18.2072
18.4435
18.6744
18.9004
19.1199
19.3317
19.5368
19.736
19.9295
20.1185
20.3034
20.4863
20.6678
20.852
21.0378
21.2254
21.4169
21.6116
21.8122
22.0195
22.2346
22.4567
22.6863
22.9232
23.1674
23.4177
23.6737
23.9362
24.203
24.4733
24.7465
25.0216
25.2981
25.5758
25.8538
26.1298
26.4051
26.6821
26.9588
27.2342
27.51
27.7856
28.0627
28.3425
28.6241
28.9074
29.1933
29.4827
29.7748
30.069
30.365
30.6628
30.9615
31.2601
31.5576
31.853
32.1451
32.4318
32.7137
32.9922
33.2647
33.5291
33.7872
34.039
34.2855
34.528
34.7667
35.0036
35.2408
35.482
35.7279
35.9827
36.2476
36.5231
36.8132
37.1191
37.4438
37.7881
38.154
38.5417
38.9521
39.3861
39.8427
40.3211
40.8192
41.3353
41.8662
42.4084
42.9596
43.5172
44.077
44.6344
45.1868
45.7331
46.2676
46.785
47.2855
47.7675
48.2276
48.6648
49.0772
49.4666
49.8302
50.1648
50.4743
50.7617
51.0266
51.2707
51.4954
51.7029
51.896
52.0769
52.2482
52.4145
52.5763
52.7364
52.8967
53.0606
53.2294
53.4038
53.5869
53.7804
53.9862
54.2075
54.4435
54.6956
54.964
55.2519
55.5569
55.881
56.2221
56.58
56.9537
57.3438
57.7472
58.1622
58.5872
59.0198
59.4577
59.8988
60.3393
60.7762
61.2061
61.6255
62.0309
62.4209
62.7901
63.1365
63.456
63.7453
64.0017
64.2253
64.4113
64.5578
64.663
64.7269
64.7471
64.7254
64.6587
64.5471
64.39
64.1875
63.9394
63.6461
63.3071
62.9216
62.4903
62.0139
61.4915
60.9241
60.3104
59.6493
58.9403
58.1839
57.3793
56.5265
55.6248
54.6727
53.6723
52.6253
51.5314
50.3921
49.2085
47.982
46.7153
45.4136
44.0769
42.7073
41.3089
39.8871
38.4432
36.9809
35.5038
34.0131
32.5139
31.0112
29.5063
28.0017
26.4997
25.001
23.5091
22.0251
20.5506
19.0872
17.6353
16.1957
14.7694
13.3577
11.9609
10.5817
9.21952
7.87514
6.54998
5.24413
3.96024
2.70313
1.47118
0.264823
-0.912838
-2.06001
-3.1749
-4.25624
-5.30272
-6.30949
-7.27892
-8.21278
-9.10893
-9.96899
-10.7917
-11.5783
-12.3297
-13.0463
-13.7299
-14.3817
-15.0037
-15.5982
-16.1661
-16.7079
-17.2254
-17.7196
-18.1915
-18.6434
-19.0738
-19.4831
-19.8709
-20.2384
-20.5834
-20.905
-21.2024
-21.4742
-21.7201
-21.9422
-22.1375
-22.3063
-22.4488
-22.5676
-22.6622
-22.7347
-22.7873
-22.8227
-22.8443
-22.8561
-22.8619
-22.8659
-22.8725
-22.8863
-22.9119
-22.9538
-23.0168
-23.1051
-23.2218
-23.3707
-23.5529
-23.7705
-24.0237
-24.3124
-24.6352
-24.9906
-25.3755
-25.7892
-26.2243
-26.6761
-27.1387
-27.6072
-28.0744
-28.5347
-28.981
-29.4071
-29.807
-30.1762
-30.5088
-30.801
-31.0495
-31.2527
-31.4085
-31.5155
-31.5761
-31.5942
-31.5706
-31.5103
-31.4182
-31.2994
-31.1609
-31.0115
-30.857
-30.7038
-30.5604
-30.434
-30.332
-30.2613
-30.2275
-30.2365
-30.2913
-30.3956
-30.5514
-30.7589
-31.0186
-31.3316
-31.6931
-32.0984
-32.5445
-33.0252
-33.5356
-34.0698
-34.62
-35.1799
-35.7413
-36.2967
-36.8385
-37.3598
-37.8546
-38.3182
-38.7443
-39.1282
-39.4669
-39.7565
-39.9971
-40.1899
-40.3327
-40.4255
-40.4715
-40.474
-40.4355
-40.3641
-40.2597
-40.1259
-39.9687
-39.792
-39.6023
-39.4042
-39.2036
-39.0062
-38.8154
-38.6329
-38.4654
-38.3156
-38.1867
-38.0819
-38.0026
-37.9498
-37.9247
-37.9282
-37.9595
-38.0189
-38.1041
-38.2131
-38.3439
-38.4952
-38.6628
-38.8427
-39.0318
-39.2261
-39.4215
-39.6135
-39.7972
-39.9663
-40.1182
-40.2494
-40.3544
-40.4275
-40.4669
-40.4704
-40.4352
-40.3592
-40.2423
-40.0856
-39.8891
-39.655
-39.386
-39.0873
-38.7619
-38.4153
-38.0526
-37.6832
-37.3104
-36.9415
-36.5835
-36.2442
-35.9291
-35.6433
-35.393
-35.1833
-35.0176
-34.8991
-34.8289
-34.8077
-34.8354
-34.9095
-35.0285
-35.1896
-35.3881
-35.6188
-35.8771
-36.1576
-36.4541
-36.7621
-37.074
-37.3828
-37.6845
-37.975
-38.2496
-38.5041
-38.7361
-38.9454
-39.1288
-39.2817
-39.4078
-39.5094
-39.5858
-39.6388
-39.6693
-39.6781
-39.6674
-39.6375
-39.5906
-39.5283
-39.4507
-39.3579
-39.2494
-39.1243
-38.9811
-38.8184
-38.6343
-38.427
-38.1937
-37.9314
-37.6378
-37.311
-36.9492
-36.5508
-36.1151
-35.6413
-35.1297
-34.5818
-33.9988
-33.3823
-32.7362
-32.0658
-31.3741
-30.6645
-29.9443
-29.2197
-28.4963
-27.782
-27.0816
-26.3988
-25.741
-25.1156
-24.5255
-23.9734
-23.4644
-22.9983
-22.58
-22.2109
-21.892
-21.6242
-21.4064
-21.2391
-21.1195
-21.0452
-21.0142
-21.027
-21.0782
-21.1648
-21.2837
-21.4328
-21.6082
-21.8061
-22.0237
-22.2573
-22.5039
-22.7585
-23.0192
-23.2817
-23.5436
-23.8017
-24.0523
-24.2938
-24.5209
-24.7314
-24.9215
-25.0883
-25.229
-25.342
-25.4253
-25.4769
-25.4961
-25.4833
-25.438
-25.3611
-25.254
-25.1199
-24.9603
-24.778
-24.5775
-24.3632
-24.1399
-23.9109
-23.6833
-23.4624
-23.2533
-23.0589
-22.8858
-22.7403
-22.6247
-22.5419
-22.4947
-22.4856
-22.5144
-22.5803
-22.6833
-22.8207
-22.9902
-23.1893
-23.4124
-23.6548
-23.9102
-24.1728
-24.4354
-24.6927
-24.937
-25.1632
-25.3637
-25.5328
-25.6649
-25.7553
-25.8014
-25.8003
-25.751
-25.6525
-25.506
-25.3133
-25.0767
-24.8011
-24.4905
-24.1506
-23.787
-23.4054
-23.0138
-22.6197
-22.2295
-21.8492
-21.4861
-21.146
-20.834
-20.554
-20.3095
-20.1007
-19.9302
-19.7989
-19.7035
-19.6415
-19.6082
-19.5971
-19.6027
-19.62
-19.6384
-19.651
-19.6466
-19.6156
-19.5489
-19.4374
-19.2722
-19.0445
-18.7478
-18.3744
-17.9206
-17.3836
-16.7608
-16.05
-15.2543
-14.3763
-13.4208
-12.3943
-11.3042
-10.1586
-8.96913
-7.74576
-6.50312
-5.25407
-4.01248
-2.7923
-1.60659
-0.468964
0.609365
1.61696
2.54463
3.38334
4.12785
4.77259
5.31638
5.7584
6.10101
6.34753
6.50454
6.57905
6.58127
6.52079
6.41123
6.26728
6.09993
5.92342
5.7497
5.59175
5.46129
5.3709
5.32752
5.33893
5.40921
5.54117
5.73573
5.99155
6.30373
6.66687
7.07253
7.50959
7.9687
8.43755
8.90351
9.3523
9.77264
10.1516
10.4779
10.7406
10.9317
11.0431
11.0711
11.0139
10.8712
10.6453
10.3409
9.9641
9.52441
9.03252
8.50002
7.94069
7.36734
6.79228
6.23071
5.69625
5.20065
4.75462
4.36804
4.04859
3.802
3.63118
3.53828
3.52181
3.57937
3.70701
3.89716
4.14455
4.43648
4.75991
5.10655
5.46164
5.81856
6.16438
6.4925
6.79257
7.06068
7.28599
7.47136
7.61174
7.71212
7.77106
7.797
7.79755
7.77781
7.7453
7.70921
7.68167
7.66872
7.6829
7.72839
7.8151
7.94596
8.12906
8.3637
8.65715
9.00195
9.39959
9.84207
10.3294
10.8505
11.4042
11.9781
12.5705
13.1703
13.7779
14.3852
14.9944
15.6043
16.2185
16.8459
17.4981
18.1877
18.931
19.7478
20.6579
21.6875
22.8611
24.2054
25.7431
27.5025
29.5005
31.7636
34.3046
37.1401
40.2745
43.7119
47.4456
51.4648
55.7487
60.2709
64.9961
69.8822
74.8804
79.934
84.9818
89.9562
94.7859
99.3984
103.72
107.675
111.191
114.197
116.624
118.413
119.509
119.868
119.458
118.251
116.234
113.406
109.778
105.37
100.22
94.3729
87.884
80.8233
73.2675
65.303
57.024
48.5257
39.9088
31.2758
22.7314
14.3744
6.30104
-1.39496
-8.6282
-15.32
-21.4027
-26.8161
-31.5113
-35.4534
-38.6179
-40.9928
-42.5759
-43.3808
-43.4297
-42.7566
-41.4042
-39.4242
-36.8757
-33.8231
-30.3364
-26.4888
-22.3551
-18.0114
-13.5316
-8.99024
-4.45505
0.00589228
4.33245
8.46922
12.3702
15.9913
19.2964
22.2612
24.8691
27.1068
28.9743
30.4708
31.6075
32.3976
32.8645
33.0298
32.9279
32.5842
32.0361
31.3149
30.4594
29.5014
28.4741
27.4107
26.3416
25.2947
24.2924
23.3588
22.5077
21.7581
21.1158
20.5942
20.1959
19.9232
19.7674
19.7298
19.7986
19.969
20.2263
20.562
20.9592
21.4079
21.8889
22.3935
22.9046
23.413
23.904
24.3701
24.803
25.1943
25.5372
25.8266
26.0578
26.2293
26.3413
26.3933
26.3885
26.3275
26.2158
26.0556
25.8549
25.616
25.3493
25.0558
24.7453
24.4198
24.0874
23.7515
23.4189
23.0927
22.7785
22.4794
22.2001
21.9419
21.7057
21.4949
21.3118
21.1562
21.0276
20.9261
20.8496
20.7983
20.7699
20.7633
20.7764
20.8067
20.8522
20.9091
20.9747
21.0447
21.1124
21.1777
21.2364
21.2859
21.3205
21.3395
21.3414
21.3214
21.2776
21.2057
21.1033
20.9683
20.8
20.5956
20.3553
20.0778
19.7638
19.4133
19.0298
18.6121
18.1618
17.6813
17.1741
16.6428
16.0889
15.5187
14.9352
14.3448
13.7526
13.1638
12.5842
12.0197
11.4758
10.9589
10.4751
10.0299
9.62827
9.27578
8.97658
8.73539
8.55744
8.44361
8.39336
8.40997
8.49458
8.6453
8.86079
9.13695
9.4681
9.85102
10.2804
10.7485
11.2475
11.7696
12.3046
12.8448
13.3812
13.905
14.4079
14.881
15.3155
15.7059
16.0445
16.3285
16.555
16.7209
16.8245
16.8679
16.8558
16.7888
16.6707
16.5073
16.3047
16.0706
15.813
15.5399
15.2597
14.9804
14.7089
14.4537
14.2226
14.0205
13.8506
13.7189
13.6289
13.5819
13.5782
13.6181
13.6992
13.8202
13.9765
14.1663
14.388
14.6344
14.9013
15.1832
15.4772
15.7774
16.0821
16.3856
16.6853
16.9783
17.2612
17.5355
17.8027
18.0615
18.3121
18.5575
18.8012
19.0446
19.292
19.5443
19.8063
20.0799
20.3682
20.6742
21.001
21.3503
21.7256
22.1264
22.5547
23.0095
23.4912
23.998
24.528
25.0794
25.6483
26.2327
26.8312
27.4379
28.0497
28.6602
29.2678
29.8638
30.4414
30.9954
31.5172
32.0027
32.4466
32.841
33.1779
33.4522
33.6586
33.79
33.8419
33.8076
33.6812
33.4587
33.1354
32.7092
32.1779
31.5397
30.7956
29.9443
28.9876
27.9279
26.768
25.513
24.169
22.7422
21.2407
19.6715
18.0448
16.3683
14.6513
12.9042
11.1364
9.3583
7.57745
5.80485
4.04931
2.31862
0.618324
-1.04367
-2.66345
-4.23587
-5.7559
-7.22308
-8.63778
-9.9985
-11.3054
-12.5608
-13.7662
-14.926
-16.0441
-17.1243
-18.1706
-19.1885
-20.1827
-21.1573
-22.1141
-23.0599
-23.9998
-24.9357
-25.8683
-26.8014
-27.7351
-28.6717
-29.6114
-30.5533
-31.4957
-32.4366
-33.3725
-34.3009
-35.2193
-36.1213
-37.003
-37.8574
-38.682
-39.4677
-40.2088
-40.8982
-41.5312
-42.1004
-42.5989
-43.0224
-43.3664
-43.6269
-43.7987
-43.8813
-43.8753
-43.7792
-43.5963
-43.3272
-42.9757
-42.5481
-42.0532
-41.4974
-40.8919
-40.2454
-39.5669
-38.8708
-38.1733
-37.4838
-36.8162
-36.1811
-35.5894
-35.0533
-34.5868
-34.1938
-33.8812
-33.6528
-33.5094
-33.453
-33.4826
-33.593
-33.7807
-34.0339
-34.3429
-34.6952
-35.0782
-35.4768
-35.877
-36.2619
-36.6166
-36.925
-37.174
-37.3487
-37.4374
-37.4303
-37.3186
-37.098
-36.7653
-36.3194
-35.7613
-35.0961
-34.3316
-33.476
-32.5401
-31.5361
-30.4777
-29.3803
-28.261
-27.1339
-26.0162
-24.9209
-23.8601
-22.848
-21.897
-21.0144
-20.2084
-19.4822
-18.8367
-18.2728
-17.7876
-17.3767
-17.0345
-16.7511
-16.5191
-16.3246
-16.1592
-16.0072
-15.856
-15.6939
-15.5091
-15.2919
-15.0333
-14.7266
-14.3658
-13.9487
-13.4711
-12.9374
-12.3497
-11.7154
-11.0408
-10.3366
-9.61202
-8.88075
-8.15565
-7.45026
-6.7789
-6.15447
-5.58922
-5.09473
-4.68248
-4.35971
-4.13093
-4.0018
-3.97596
-4.05052
-4.22171
-4.48326
-4.82563
-5.23869
-5.71124
-6.22657
-6.76889
-7.32
-7.86213
-8.37608
-8.84447
-9.24907
-9.57194
-9.79932
-9.91693
-9.91509
-9.78573
-9.52273
-9.12139
-8.58454
-7.91593
-7.12202
-6.21192
-5.19916
-4.09922
-2.92907
-1.70688
-0.454607
0.807759
2.05581
3.26724
4.42021
5.49262
6.46492
7.31881
8.03867
8.61172
9.02646
9.2737
9.35009
9.25595
8.99209
8.56654
7.98539
7.25734
6.39893
5.428
4.36227
3.22264
2.02996
0.804822
-0.428704
-1.64805
-2.83149
-3.95588
-5.00395
-5.95914
-6.80519
-7.53051
-8.12322
-8.57511
-8.88206
-9.04257
-9.05727
-8.92901
-8.66537
-8.27622
-7.77251
-7.16829
-6.47869
-5.71999
-4.90973
-4.06646
-3.20832
-2.35294
-1.51927
-0.723887
0.0167188
0.6861
1.273
1.76802
2.16045
2.44406
2.6143
2.66829
2.60682
2.43362
2.15259
1.7727
1.30097
0.74803
0.126293
-0.551956
-1.27054
-2.01201
-2.76235
-3.50467
-4.22369
-4.9018
-5.52662
-6.08361
-6.56222
-6.95201
-7.24449
-7.43342
-7.51392
-7.48299
-7.3418
-7.09463
-6.74435
-6.3001
-5.76825
-5.16249
-4.49139
-3.76859
-3.00827
-2.22686
-1.43797
-0.65693
0.100746
0.82131
1.49038
2.09525
2.62492
3.0696
3.42144
3.67526
3.82608
3.87209
3.81263
3.64838
3.3834
3.02462
2.57619
2.04689
1.44433
0.779116
0.0609533
-0.699149
-1.49034
-2.30082
-3.12029
-3.93834
-4.74429
-5.52595
-6.27657
-6.98779
-7.65276
-8.26449
-8.81758
-9.30808
-9.73199
-10.0862
-10.3693
-10.5819
-10.7225
-10.7949
-10.7972
-10.7313
-10.5999
-10.4076
-10.1574
-9.85328
-9.50077
-9.10616
-8.67472
-8.21378
-7.72899
-7.22755
-6.71668
-6.20512
-5.69946
-5.20897
-4.73958
-4.29974
-3.89602
-3.53486
-3.22434
-2.97062
-2.77963
-2.65698
-2.60624
-2.63055
-2.73266
-2.91223
-3.17144
-3.50498
-3.9158
-4.39976
-4.95407
-5.57171
-6.24845
-6.97528
-7.74699
-8.55531
-9.39121
-10.248
-11.1132
-11.9768
-12.8285
-13.659
-14.4572
-15.2153
-15.9216
-16.567
-17.1423
-17.6401
-18.0511
-18.3703
-18.5889
-18.6987
-18.6978
-18.5845
-18.354
-18.0053
-17.5383
-16.9557
-16.2593
-15.4552
-14.5474
-13.5419
-12.4495
-11.2809
-10.0483
-8.76496
-7.44589
-6.10608
-4.7639
-3.43908
-2.1477
-0.908487
0.261016
1.34406
2.32291
3.1797
3.90229
4.47799
4.8969
5.15288
5.23864
5.15301
4.89541
4.46818
3.87841
3.13677
2.25389
1.2434
0.122615
-1.09006
-2.37394
-3.70763
-5.06842
-6.43287
-7.77928
-9.08535
-10.3304
-11.495
-12.5609
-13.5126
-14.3364
-15.0241
-15.5652
-15.9557
-16.1921
-16.2749
-16.2071
-15.9946
-15.6448
-15.1669
-14.5733
-13.8761
-13.0899
-12.2277
-11.306
-10.3402
-9.34424
-8.33028
-7.31292
-6.30498
-5.31609
-4.356
-3.43198
-2.54928
-1.71381
-0.926949
-0.192637
0.488455
1.11657
1.69314
2.21976
2.69998
3.13569
3.53042
3.88748
4.21144
4.50477
4.77109
5.01282
5.23491
5.43696
5.6226
5.79202
5.94842
6.09047
6.21653
6.32878
6.42789
6.51288
6.58539
6.64282
6.68412
6.70903
6.71451
6.70216
6.6676
6.61316
6.53727
6.43976
6.31936
6.17557
6.00482
5.80877
5.58631
5.33698
5.06043
4.75596
4.424
4.06273
3.67225
3.25163
2.8012
2.32031
1.80727
1.26433
0.69471
0.0962462
-0.529069
-1.18138
-1.86271
-2.56874
-3.2972
-4.04671
-4.81878
-5.60738
-6.41257
-7.22916
-8.05351
-8.8835
-9.71769
-10.5515
-11.3835
-12.2088
-13.0236
-13.8253
-14.6151
-15.3855
-16.1354
-16.8601
-17.5608
-18.2313
-18.8731
-19.4818
-20.057
-20.5975
-21.1003
-21.5696
-22.0074
-22.4143
-22.7885
-23.1362
-23.4558
-23.7546
-24.0344
-24.2993
-24.5485
-24.7892
-25.0182
-25.2438
-25.4629
-25.6805
-25.893
-26.1024
-26.3002
-26.4883
-26.6571
-26.8023
-26.9108
-26.975
-26.978
-26.909
-26.7531
-26.4903
-26.1026
-25.5687
-24.8697
-23.9828
-22.8921
-21.5731
-20.0096
-18.1826
-16.0829
-13.6944
-11.011
-8.02825
-4.75109
-1.18211
2.66548
6.77523
11.1215
15.6762
20.4024
25.2581
30.1935
35.1571
40.0916
44.9343
49.6189
54.0789
58.2435
62.0463
65.4203
68.3004
70.6271
72.3424
73.395
73.7448
73.356
72.2065
70.2833
67.5832
64.1141
59.8967
54.9638
49.3577
43.1327
36.3524
29.0886
21.4245
13.4477
5.25329
-3.05968
-11.3922
-19.6436
-27.7146
-35.5093
-42.9354
-49.9078
-56.3477
-62.1868
-67.3646
-71.8325
-75.554
-78.5026
-80.6673
-82.0488
-82.6573
-82.5147
-81.6551
-80.1211
-77.9645
-75.2422
-72.0204
-68.3694
-64.3612
-60.0707
-55.5717
-50.9367
-46.237
-41.5391
-36.9064
-32.3921
-28.0501
-23.9225
-20.0469
-16.451
-13.1579
-10.1811
-7.52821
-5.19766
-3.18601
-1.48149
-0.0693666
1.0736
1.96697
2.63912
3.11381
3.4226
3.58972
3.64453
3.61104
3.51531
3.3779
3.21519
3.04758
2.88964
2.75342
2.64539
2.57466
2.54142
2.55149
2.60423
2.69936
2.82995
2.99618
3.1887
3.40688
3.64083
3.89054
4.14682
4.40964
4.66803
4.92558
5.17605
5.4217
5.65805
5.88811
6.10765
6.32212
6.53542
6.74719
6.9605
7.17675
7.40036
7.63137
7.87595
8.13168
8.40209
8.68578
8.98612
9.3
9.62804
9.96687
10.3171
10.6738
11.0361
11.3981
11.757
12.108
12.4461
12.7672
13.0683
13.3439
13.5886
13.8006
13.9779
14.1166
14.2151
14.2725
14.2881
14.2621
14.1936
14.086
13.944
13.769
13.5644
13.335
13.0856
12.8211
12.5464
12.2673
11.9893
11.7176
11.4562
11.2106
10.9847
10.783
10.6103
10.468
10.3575
10.2811
10.2406
10.2354
10.2661
10.3314
10.4307
10.562
10.726
10.9182
11.1363
11.3781
11.6412
11.9231
12.2216
12.5349
12.8593
13.1953
13.5404
13.8954
14.2595
14.6332
15.0152
15.4077
15.8115
16.2285
16.6615
17.1109
17.5792
18.0671
18.5759
19.1073
19.6643
20.2458
20.8524
21.4831
22.1382
22.8147
23.5104
24.2217
24.9448
25.6748
26.4067
27.1346
27.8538
28.5564
29.2361
29.8865
30.5016
31.0757
31.6022
32.0781
32.4997
32.8649
33.1718
33.421
33.6133
33.7517
33.839
33.8817
33.8849
33.8574
33.8075
33.7439
33.6748
33.6107
33.5612
33.5357
33.5439
33.5919
33.6867
33.8327
34.0344
34.2928
34.6069
34.9762
35.3989
35.8682
36.3755
36.9138
37.4733
38.0433
38.613
39.1692
39.6986
40.1901
40.6325
41.015
41.3285
41.5645
41.7164
41.7797
41.7529
41.6347
41.427
41.1336
40.7625
40.3196
39.8144
39.2583
38.6635
38.0431
37.4121
36.7833
36.1708
35.5871
35.0488
34.5628
34.1391
33.786
33.5117
33.3191
33.2124
33.1908
33.2569
33.4041
33.6285
33.9237
34.2833
34.6986
35.1619
35.6628
36.1913
36.7387
37.2972
37.8577
38.4127
38.9555
39.4822
39.9868
40.4648
40.9154
41.3377
41.7313
42.0973
42.4361
42.7466
43.0333
43.2982
43.5422
43.7652
43.9682
44.151
44.3119
44.4503
44.5607
44.6407
44.6821
44.679
44.6229
44.5065
44.3205
44.0576
43.7069
43.2606
42.7086
42.0413
41.254
40.3424
39.3013
38.1278
36.8216
35.3842
33.8183
32.1292
30.3239
28.4109
26.402
24.3094
22.1481
19.9328
17.6812
15.4084
13.1344
10.8772
8.65466
6.48535
4.38454
2.36833
0.450446
-1.35648
-3.04167
-4.59552
-6.01255
-7.29039
-8.42464
-9.41564
-10.2652
-10.9759
-11.5563
-12.0152
-12.3623
-12.6081
-12.7666
-12.8502
-12.8747
-12.8569
-12.81
-12.7481
-12.6867
-12.6396
-12.6195
-12.637
-12.7033
-12.8269
-13.0155
-13.274
-13.6063
-14.0144
-14.4976
-15.055
-15.6819
-16.3717
-17.1188
-17.9166
-18.7536
-19.6196
-20.5034
-21.3943
-22.2793
-23.1477
-23.9859
-24.7834
-25.5283
-26.2119
-26.824
-27.3563
-27.8029
-28.1586
-28.4204
-28.5867
-28.6575
-28.6344
-28.5219
-28.3283
-28.0579
-27.7187
-27.3204
-26.8753
-26.3933
-25.888
-25.3707
-24.8569
-24.3561
-23.8797
-23.439
-23.0445
-22.7038
-22.4253
-22.2134
-22.0708
-22
-22.001
-22.0714
-22.2075
-22.4031
-22.6518
-22.944
-23.2693
-23.6168
-23.9743
-24.3312
-24.6776
-25.0002
-25.2864
-25.5277
-25.7159
-25.8433
-25.9039
-25.8944
-25.8122
-25.658
-25.4356
-25.1468
-24.7981
-24.3962
-23.9522
-23.473
-22.9684
-22.4507
-21.9316
-21.423
-20.9389
-20.4878
-20.0777
-19.7193
-19.4216
-19.1893
-19.0274
-18.9382
-18.9237
-18.9828
-19.1144
-19.3137
-19.5754
-19.8933
-20.2586
-20.6649
-21.103
-21.5639
-22.0362
-22.513
-22.9849
-23.4438
-23.8831
-24.2947
-24.6708
-25.0081
-25.3016
-25.5488
-25.7478
-25.8976
-25.9955
-26.0437
-26.0412
-25.9912
-25.8961
-25.7576
-25.5773
-25.3581
-25.1035
-24.8145
-24.4942
-24.1433
-23.763
-23.3553
-22.9226
-22.4653
-21.9862
-21.4846
-20.9618
-20.4197
-19.8613
-19.2879
-18.7014
-18.1057
-17.5029
-16.8987
-16.2979
-15.7062
-15.1296
-14.5749
-14.0471
-13.5551
-13.1064
-12.7083
-12.3686
-12.0936
-11.8889
-11.7609
-11.716
-11.7569
-11.8871
-12.1079
-12.4205
-12.8238
-13.3167
-13.8951
-14.553
-15.286
-16.0896
-16.9533
-17.8682
-18.8248
-19.8139
-20.8245
-21.8465
-22.8692
-23.8826
-24.8772
-25.8435
-26.7741
-27.6618
-28.5008
-29.2847
-30.011
-30.676
-31.2796
-31.8226
-32.3044
-32.7262
-33.0907
-33.4005
-33.6596
-33.8734
-34.044
-34.1744
-34.2694
-34.3352
-34.3723
-34.3825
-34.3686
-34.3312
-34.2719
-34.1916
-34.0892
-33.9645
-33.8158
-33.6421
-33.4416
-33.2108
-32.9502
-32.6599
-32.3384
-31.9827
-31.5961
-31.18
-30.7371
-30.2715
-29.7863
-29.284
-28.7729
-28.2607
-27.7528
-27.2544
-26.7748
-26.3212
-25.9005
-25.5203
-25.1857
-24.9022
-24.6736
-24.5032
-24.3928
-24.3446
-24.3562
-24.4251
-24.5474
-24.7191
-24.9333
-25.1818
-25.4578
-25.7513
-26.0546
-26.3609
-26.6587
-26.938
-27.1923
-27.4164
-27.6018
-27.7423
-27.8353
-27.8796
-27.8729
-27.817
-27.7125
-27.5635
-27.3734
-27.1486
-26.8945
-26.618
-26.3267
-26.0286
-25.7312
-25.4433
-25.1709
-24.9184
-24.6938
-24.5031
-24.3497
-24.2372
-24.1671
-24.1421
-24.1608
-24.2223
-24.3255
-24.4694
-24.6501
-24.8646
-25.1098
-25.3826
-25.6786
-25.9951
-26.3275
-26.6705
-27.0229
-27.381
-27.7432
-28.105
-28.4665
-28.8234
-29.1767
-29.5252
-29.8667
-30.1982
-30.5197
-30.8302
-31.1268
-31.4074
-31.6684
-31.9079
-32.1209
-32.3047
-32.4535
-32.5647
-32.6311
-32.649
-32.6122
-32.5157
-32.3555
-32.1291
-31.8311
-31.4582
-31.0091
-30.4827
-29.8797
-29.1995
-28.4471
-27.627
-26.7442
-25.8058
-24.82
-23.7943
-22.7407
-21.6708
-20.5966
-19.5294
-18.4828
-17.4697
-16.5017
-15.5906
-14.7471
-13.9793
-13.2964
-12.7058
-12.2109
-11.813
-11.5142
-11.3131
-11.2062
-11.1868
-11.2484
-11.3802
-11.5732
-11.8157
-12.0942
-12.3952
-12.7042
-13.0085
-13.2929
-13.5432
-13.7476
-13.8956
-13.9771
-13.9843
-13.9102
-13.75
-13.5016
-13.1645
-12.7404
-12.233
-11.6477
-10.992
-10.2738
-9.50247
-8.6891
-7.84546
-6.98391
-6.11809
-5.25948
-4.41957
-3.61147
-2.8442
-2.13009
-1.48057
-0.901911
-0.40049
0.0179749
0.347671
0.587124
0.735049
0.791293
0.758397
0.637267
0.431227
0.14482
-0.216387
-0.646646
-1.13865
-1.68624
-2.28272
-2.91988
-3.59051
-4.28621
-5.00099
-5.72629
-6.45667
-7.18357
-7.90051
-8.60189
-9.28243
-9.93709
-10.5605
-11.1512
-11.7072
-12.2251
-12.7058
-13.1461
-13.5468
-13.907
-14.2303
-14.5147
-14.7659
-14.9826
-15.1712
-15.331
-15.4663
-15.5799
-15.6785
-15.7626
-15.8343
-15.8984
-15.9567
-16.0139
-16.0685
-16.1268
-16.1876
-16.2545
-16.3242
-16.4004
-16.4783
-16.5607
-16.64
-16.7193
-16.7911
-16.8564
-16.9074
-16.9434
-16.9531
-16.9363
-16.8832
-16.7901
-16.6487
-16.4511
-16.1892
-15.8523
-15.4308
-14.9124
-14.2871
-13.542
-12.6655
-11.6456
-10.4723
-9.13312
-7.61964
-5.92065
-4.03028
-1.94041
0.350485
2.84542
5.53993
8.43085
11.5087
14.7607
18.1668
21.7072
25.3531
29.0762
32.8403
36.6072
40.3311
43.9687
47.4707
50.7873
53.8665
56.6576
59.1076
61.1699
62.7968
63.9477
64.5844
64.6756
64.198
63.132
61.4683
59.205
56.3517
52.9219
48.9414
44.4433
39.472
34.075
28.3099
22.2388
15.93
9.45488
2.88906
-3.69222
-10.2153
-16.6019
-22.78
-28.6784
-34.2307
-39.3781
-44.0675
-48.2519
-51.8924
-54.9592
-57.4293
-59.2907
-60.5395
-61.1785
-61.2191
-60.6807
-59.5886
-57.9764
-55.8831
-53.3507
-50.4255
-47.1577
-43.5985
-39.8019
-35.8226
-31.7131
-27.525
-23.3094
-19.1154
-14.9879
-10.9671
-7.09386
-3.40638
0.0673983
3.30381
6.27802
8.97371
11.3759
13.4767
15.2697
16.7584
17.9403
18.8241
19.416
19.7316
19.7818
19.584
19.1563
18.5211
17.6988
16.7115
15.5841
14.3385
13.0021
11.5946
10.1458
8.67996
7.22071
5.78815
4.40622
3.09271
1.86825
0.746361
-0.254952
-1.12689
-1.85485
-2.43525
-2.85743
-3.12278
-3.22466
-3.16806
-2.95227
-2.58474
-2.07045
-1.41979
-0.6418
0.253926
1.25151
2.33758
3.49577
4.71022
5.96474
7.24306
8.52959
9.81119
11.0705
12.2978
13.4754
14.5928
15.6377
16.6028
17.4781
18.2581
18.9368
19.5119
19.9806
20.3441
20.6023
20.7584
20.8157
20.7791
20.6553
20.452
20.1771
19.8409
19.4517
19.0206
18.5572
18.0734
17.5786
17.082
16.5947
16.1244
15.6816
15.2746
14.9101
14.592
14.3271
14.1182
13.9694
13.8802
13.8526
13.8846
13.9752
14.1192
14.3145
14.5553
14.8367
15.1547
15.5002
15.8666
16.2468
16.6342
17.021
17.4017
17.7696
18.1196
18.4467
18.7457
19.015
19.2522
19.4572
19.6303
19.7724
19.8844
19.9705
20.034
20.0804
20.1155
20.1447
20.1751
20.2124
20.2658
20.3391
20.4414
20.5756
20.7481
20.962
21.221
21.527
21.8826
22.2866
22.7367
23.2316
23.7657
24.3373
24.9423
25.5729
26.2211
26.8805
27.5427
28.2011
28.8485
29.4772
30.0794
30.6507
31.1851
31.68
32.1321
32.5405
32.905
33.2262
33.5073
33.7504
33.9577
34.1353
34.2889
34.4234
34.5445
34.6573
34.767
34.8784
34.9957
35.1223
35.2603
35.4114
35.5762
35.7542
35.942
36.1386
36.3399
36.5427
36.7433
36.9359
37.1142
37.274
37.4119
37.5218
37.6021
37.6473
37.6589
37.6319
37.5676
37.4652
37.3257
37.1525
36.9505
36.7235
36.4783
36.2195
35.9557
35.6916
35.4327
35.1884
34.9657
34.7722
34.6143
34.4985
34.4316
34.4181
34.4628
34.5696
34.7422
34.9825
35.2924
35.6735
36.1272
36.6517
37.2481
37.9119
38.6426
39.4335
40.2791
41.1739
42.1124
43.0851
44.0852
45.1006
46.1207
47.1339
48.1264
49.0872
49.9987
50.8531
51.6336
52.3307
52.929
53.4191
53.7925
54.0361
54.1433
54.1044
53.9195
53.5792
53.0875
52.4386
51.6429
50.6961
49.6118
48.3896
47.0454
45.5825
44.0156
42.3545
40.6124
38.8049
36.9424
35.0451
33.1231
31.1982
29.2794
27.3895
25.5371
23.7452
22.025
20.396
18.8665
17.4573
16.1753
15.0396
14.058
13.2435
12.6046
12.1458
11.8685
11.7722
11.8535
12.1025
12.509
13.053
13.7125
14.4607
15.2701
16.101
16.9181
17.6736
18.3248
18.8208
19.1134
19.1544
18.9002
18.3035
17.3266
15.9335
14.0985
11.7997
9.02839
5.78195
2.07287
-2.07985
-6.64258
-11.5715
-16.8114
-22.2959
-27.9499
-33.6892
-39.4236
-45.0571
-50.4906
-55.6254
-60.3634
-64.6101
-68.2771
-71.2829
-73.5587
-75.0437
-75.6956
-75.4811
-74.388
-72.4164
-69.5868
-65.9333
-61.508
-56.3776
-50.6251
-44.3415
-37.6323
-30.6083
-23.3909
-16.0978
-8.84884
-1.76629
5.03401
11.4426
17.3575
22.6907
27.3651
31.3174
34.499
36.8771
38.4343
39.1696
39.0971
38.2451
36.6539
34.3779
31.4791
28.0315
24.1129
19.8076
15.2015
10.382
5.4337
0.440739
-4.51951
-9.37279
-14.0528
-18.5008
-22.6623
-26.5001
-29.979
-33.0759
-35.7728
-38.0648
-39.9504
-41.4387
-42.548
-43.2913
-43.6965
-43.7842
-43.5862
-43.1293
-42.448
-41.57
-40.5325
-39.3579
-38.0778
-36.7146
-35.2973
-33.8426
-32.3707
-30.8969
-29.4324
-27.9914
-26.58
-25.2091
-23.8807
-22.6026
-21.3738
-20.1997
-19.0771
-18.0093
-16.9929
-16.0286
-15.1081
-14.235
-13.3989
-12.6045
-11.8444
-11.1195
-10.4242
-9.75799
-9.11901
-8.50372
-7.91223
-7.3401
-6.78787
-6.25269
-5.73572
-5.23567
-4.75616
-4.29657
-3.86173
-3.4529
-3.07706
-2.73499
-2.43065
-2.16943
-1.96004
-1.80414
-1.70759
-1.67419
-1.71066
-1.8183
-2.00214
-2.26167
-2.60037
-3.01409
-3.49915
-4.05297
-4.66984
-5.3425
-6.06162
-6.81759
-7.59663
-8.38896
-9.18226
-9.96197
-10.7151
-11.4269
-12.0817
-12.6692
-13.1785
-13.5983
-13.9181
-14.1332
-14.2386
-14.2322
-14.1147
-13.8873
-13.556
-13.1256
-12.604
-12.0021
-11.3319
-10.6069
-9.83872
-9.04491
-8.24095
-7.44167
-6.66159
-5.9142
-5.21005
-4.56223
-3.98124
-3.47359
-3.04605
-2.70112
-2.4394
-2.26199
-2.16595
-2.14773
-2.20086
-2.31925
-2.49247
-2.71427
-2.97623
-3.2676
-3.58022
-3.90261
-4.22688
-4.54344
-4.84527
-5.12542
-5.37752
-5.5984
-5.7879
-5.94132
-6.05301
-6.12689
-6.16441
-6.16612
-6.13422
-6.07162
-5.97931
-5.86169
-5.71949
-5.55828
-5.38332
-5.19547
-4.99948
-4.79628
-4.58822
-4.377
-4.16752
-3.95827
-3.75286
-3.55001
-3.35059
-3.15557
-2.96612
-2.78227
-2.60362
-2.4313
-2.26441
-2.10405
-1.948
-1.79884
-1.65472
-1.51708
-1.3837
-1.25621
-1.13587
-1.02083
-0.912588
-0.809149
-0.710943
-0.616309
-0.526128
-0.438308
-0.351511
-0.265695
-0.17877
-0.091498
-0.00574211
0.0818525
0.170406
0.261621
0.352773
0.4469
0.538581
0.633017
0.7314
0.831238
0.93512
1.03733
1.14448
1.24548
1.34458
1.43186
1.50986
1.5694
1.61034
1.62583
1.61593
1.57398
1.49409
1.37686
1.21588
1.01635
0.769291
0.488163
0.168712
-0.174974
-0.540084
-0.911711
-1.27984
-1.62966
-1.94773
-2.2171
-2.41763
-2.53512
-2.5483
-2.44578
-2.20833
-1.82775
-1.28649
-0.586042
0.282707
1.31077
2.49473
3.81868
5.26356
6.80852
8.42265
10.0776
11.7325
13.3546
14.8987
16.3288
17.6008
18.6782
19.522
20.103
20.3944
20.3749
20.0276
19.3498
18.3426
17.0186
15.3976
13.5068
11.3812
9.06215
6.60327
4.04954
1.46174
-1.11013
-3.6039
-5.97258
-8.16123
-10.1295
-11.8378
-13.2553
-14.3585
-15.1332
-15.577
-15.6919
-15.4935
-15.0011
-14.2505
-13.2715
-12.1097
-10.8051
-9.40817
-7.96338
-6.51573
-5.11045
-3.78909
-2.5832
-1.51916
-0.618062
0.108169
0.655384
1.02725
1.23534
1.29639
1.23519
1.08123
0.864542
0.619706
0.378405
0.174767
0.0357989
-0.0161297
0.0416599
0.220857
0.530582
0.968028
1.52743
2.19326
2.94361
3.75103
4.58108
5.39927
6.16337
6.83451
7.37176
7.74182
7.90646
7.84195
7.52094
6.93464
6.07134
4.9368
3.53911
1.90075
0.0484909
-1.97752
-4.13751
-6.38477
-8.66489
-10.9311
-13.1183
-15.1836
-17.0607
-18.7119
-20.0797
-21.1341
-21.8349
-22.1631
-22.0995
-21.6386
-20.7836
-19.5423
-17.9388
-15.9926
-13.7456
-11.2215
-8.48158
-5.56413
-2.53136
0.573206
3.68683
6.76111
9.7411
12.5774
15.2272
17.6459
19.803
21.6621
23.2049
24.4059
25.2604
25.7538
25.8945
25.6805
25.1316
24.2572
23.0881
21.647
19.9707
18.0924
16.0524
13.8934
11.6556
9.3862
7.12375
4.91417
2.79281
0.8047
-1.02387
-2.65773
-4.07793
-5.25904
-6.19377
-6.87039
-7.29295
-7.46773
-7.4078
-7.13609
-6.67418
-6.05922
-5.32054
-4.50009
-3.63612
-2.77608
-1.95757
-1.22338
-0.610032
-0.150515
0.125871
0.200544
0.0553062
-0.310276
-0.900635
-1.69532
-2.68528
-3.83276
-5.11259
-6.47385
-7.87696
-9.26704
-10.5906
-11.7931
-12.815
-13.6033
-14.1029
-14.274
-14.0683
-13.4585
-12.4138
-10.9244
-8.97989
-6.59096
-3.76825
-0.543893
3.05149
6.96813
11.1564
15.5525
20.0923
24.7077
29.3212
33.8618
38.2483
42.4127
46.275
49.7702
52.8308
55.4016
57.428
58.8669
59.6819
59.8472
59.3433
58.1544
56.2869
53.7391
50.5395
46.7087
42.2872
37.311
31.8373
25.9209
19.6275
13.024
6.18662
-0.80663
-7.87434
-14.9269
-21.8857
-28.658
-35.1685
-41.3274
-47.0659
-52.3048
-56.9851
-61.0419
-64.4323
-67.115
-69.0623
-70.2583
-70.6937
-70.3768
-69.3213
-67.5649
-65.1389
-62.1004
-58.5025
-54.4182
-49.9174
-45.0821
-39.9933
-34.7363
-29.3935
-24.0447
-18.7697
-13.6414
-8.72505
-4.07442
0.259144
4.23758
7.83338
11.0283
13.8173
16.2057
18.2043
19.8391
21.1328
22.1222
22.8414
23.3381
23.6444
23.8067
23.8562
23.8326
23.7595
23.6679
23.5675
23.4697
23.3788
23.2918
23.2024
23.097
22.9591
22.7656
22.4983
22.1313
21.6486
21.0254
20.2546
19.3143
18.2157
16.9506
15.5446
14.0061
12.3738
10.6736
8.95531
7.2638
5.64911
4.16398
2.85889
1.78814
0.993162
0.519994
0.396737
0.651454
1.29502
2.33607
3.75896
5.54369
7.65366
10.0439
12.6554
15.4224
18.2683
21.1173
23.8788
26.4736
28.8107
30.817
32.4134
33.5415
34.1456
34.19
33.6508
32.5211
30.8135
28.5544
25.7899
22.5757
18.9911
15.1147
11.0511
6.89914
2.77255
-1.22572
-4.98091
-8.3938
-11.365
-13.8117
-15.6605
-16.8529
-17.3511
-17.1251
-16.1811
-14.5297
-12.2129
-9.2756
-5.79662
-1.85723
2.44194
6.99516
11.688
16.4009
21.0184
25.4203
29.5014
33.1535
36.2939
38.8381
40.735
41.9321
42.4144
42.1658
41.209
39.5706
37.3025
34.4704
31.1494
27.4344
23.4163
19.2053
14.901
10.6193
6.45325
2.50743
-1.13661
-4.39795
-7.21216
-9.5229
-11.2955
-12.5088
-13.1533
-13.2351
-12.7766
-11.812
-10.3858
-8.54987
-6.36598
-3.89425
-1.20588
1.6372
4.56599
7.51953
10.4456
13.297
16.038
18.6316
21.0685
23.3322
25.4319
27.3684
29.167
30.8399
32.4253
33.9477
35.447
36.953
38.4992
40.1115
41.8131
43.6234
45.5481
47.5945
49.7507
52.008
54.3385
56.7247
59.12
61.4967
63.7969
65.9808
67.9917
69.7872
71.315
72.5297
73.3946
73.872
73.9425
73.579
72.7834
71.548
69.8932
67.8348
65.4083
62.6466
59.6022
56.3271
52.8829
49.3347
45.7481
42.1949
38.739
35.4482
32.3815
29.5967
27.1436
25.0644
23.3962
22.1672
21.3932
21.0833
21.2352
21.8417
22.8808
24.3265
26.1428
28.2913
30.7251
33.3994
36.2582
39.2521
42.3249
45.4271
48.5075
51.5251
54.4321
57.1947
59.7767
62.1522
64.3001
66.2026
67.8532
69.2457
70.3836
71.268
71.9139
72.3331
72.5446
72.5691
72.426
72.1408
71.7327
71.2281
70.6446
70.0072
69.3315
68.6425
67.9494
67.2726
66.6176
65.9983
65.417
64.8762
64.3803
63.9234
63.5095
63.1296
62.7819
62.4567
62.1471
61.8362
61.5198
61.1814
60.8144
60.4078
59.9502
59.4294
58.8375
58.1682
57.4116
56.5626
55.6143
54.5622
53.4048
52.1414
50.7733
49.302
47.7323
46.0693
44.3199
42.494
40.6002
38.6515
36.6573
34.6338
32.5907
30.5448
28.5068
26.4914
24.5109
22.5767
20.703
18.9035
17.1876
15.5655
14.0451
12.6319
11.3329
10.1506
9.08888
8.1507
7.3327
6.63306
6.04739
5.56858
5.19213
4.90138
4.69758
4.55967
4.4918
4.47725
4.51382
4.58646
4.6913
4.8207
4.96437
5.12326
5.2792
5.43545
5.57382
5.70113
5.79652
5.86565
5.89039
5.87314
5.80057
5.67389
5.48109
5.21889
4.88144
4.45882
3.95556
3.36433
2.69374
1.94361
1.12583
0.239405
-0.688768
-1.64653
-2.6044
-3.53577
-4.41048
-5.18972
-5.84274
-6.32458
-6.60111
-6.62439
-6.3642
-5.77767
-4.83886
-3.51599
-1.79199
0.346235
2.90204
5.86475
9.22326
12.943
16.9957
21.3228
25.8779
30.5842
35.3771
40.1658
44.8759
49.4073
53.6853
57.6131
61.1192
64.1219
66.5574
68.366
69.4988
69.9272
69.619
68.5762
66.788
64.2794
61.0701
57.2083
52.7364
47.7212
42.222
36.3154
30.0729
23.5664
16.8786
10.0767
3.24223
-3.56139
-10.2655
-16.8163
-23.1578
-29.2472
-35.042
-40.5058
-45.611
-50.3282
-54.6405
-58.5267
-61.9726
-64.9566
-67.4698
-69.4907
-71.0117
-72.0167
-72.4916
-72.4217
-71.7939
-70.5968
-68.82
-66.4614
-63.5149
-59.991
-55.8921
-51.2444
-46.063
-40.3875
-34.2536
-27.7134
-20.8253
-13.656
-6.28238
1.21727
8.75177
16.2378
23.5743
30.6764
37.4428
43.7852
49.6201
54.8761
59.4809
63.3809
66.5279
68.8977
70.4643
71.2334
71.2054
70.4082
68.8739
66.65
63.7983
60.3828
56.4866
52.1815
47.5662
42.7178
37.7402
32.709
27.7233
22.8547
18.1878
13.7863
9.71393
6.01517
2.73632
-0.0918204
-2.449
-4.3214
-5.70978
-6.61837
-7.06528
-7.06754
-6.66065
-5.86916
-4.74162
-3.31349
-1.63738
0.23697
2.2642
4.3881
6.56899
8.75699
10.9123
12.9845
14.9444
16.7508
18.3805
19.8062
21.0088
21.9695
22.6807
23.1393
23.344
23.3125
23.0443
22.5673
21.8917
21.0537
20.0713
18.9884
17.8287
16.6404
15.4511
14.3074
13.2383
12.2842
11.4723
10.828
10.3797
10.1374
10.1254
10.3377
10.7917
11.4771
12.3931
13.5173
14.8402
16.3375
17.9838
19.7521
21.6085
23.5255
25.4656
27.4017
29.2981
31.128
32.8622
34.4792
35.956
37.2739
38.4216
39.388
40.1686
40.7572
41.1579
41.3723
41.4084
41.2713
40.974
40.5237
39.9363
39.2251
38.4034
37.4849
36.4821
35.4099
34.2795
33.1031
31.894
30.6688
29.435
28.211
27.0016
25.8245
24.6826
23.5905
22.5523
21.5782
20.6738
19.8462
19.0998
18.4359
17.8592
17.366
16.9595
16.6375
16.396
16.2261
16.1233
16.0805
16.0858
16.1315
16.2024
16.291
16.3816
16.4657
16.5306
16.5742
16.5829
16.5528
16.4794
16.3566
16.1907
15.9804
15.7365
15.4578
15.1623
14.8525
14.5478
14.2552
13.9912
13.7682
13.5949
13.4809
13.43
13.4511
13.5381
13.6933
13.9027
14.1562
14.4352
14.723
14.9913
15.2126
15.3557
15.3902
15.2793
14.9875
14.481
13.7243
12.6889
11.3424
9.66887
7.649
5.27633
2.54426
-0.536643
-3.95236
-7.6796
-11.6849
-15.9301
-20.368
-24.9441
-29.5961
-34.2598
-38.865
-43.3426
-47.6194
-51.628
-55.2991
-58.5725
-61.3906
-63.7075
-65.4852
-66.6948
-67.3192
-67.3509
-66.7965
-65.6706
-64.0037
-61.8309
-59.2027
-56.1727
-52.8027
-49.1625
-45.3252
-41.3655
-37.3578
-33.3766
-29.4875
-25.761
-22.2507
-19.0147
-16.092
-13.5234
-11.3325
-9.53904
-8.14725
-7.15836
-6.56552
-6.34692
-6.48241
-6.93619
-7.67877
-8.66494
-9.86033
-11.2148
-12.6916
-14.2428
-15.8336
-17.4214
-18.9764
-20.4655
-21.8625
-23.1483
-24.3005
-25.3154
-26.1829
-26.9067
-27.487
-27.9349
-28.2629
-28.4852
-28.6215
-28.6904
-28.7177
-28.7231
-28.7359
-28.7757
-28.8706
-29.0402
-29.313
-29.7024
-30.2319
-30.9105
-31.7525
-32.7648
-33.9555
-35.3234
-36.8692
-38.5831
-40.4526
-42.4645
-44.5989
-46.8334
-49.1403
-51.4914
-53.8483
-56.183
-58.4523
-60.6259
-62.6579
-64.5204
-66.1685
-67.5789
-68.7163
-69.5594
-70.0832
-70.2738
-70.1199
-69.6155
-68.7661
-67.5716
-66.0489
-64.2101
-62.0808
-59.6853
-57.0599
-54.2338
-51.2491
-48.1391
-44.947
-41.7075
-38.4643
-35.2467
-32.0887
-29.0194
-26.0672
-23.2524
-20.5901
-18.0967
-15.7805
-13.6493
-11.7019
-9.94192
-8.36539
-6.97006
-5.74889
-4.69915
-3.81631
-3.09544
-2.53222
-2.12598
-1.87805
-1.78886
-1.85988
-2.09813
-2.50522
-3.09102
-3.85848
-4.81574
-5.96183
-7.30302
-8.82961
-10.5439
-12.4297
-14.4783
-16.6663
-18.9711
-21.3623
-23.8035
-26.2585
-28.6778
-31.0199
-33.228
-35.2557
-37.0461
-38.5537
-39.7258
-40.5231
-40.9012
-40.8296
-40.2811
-39.2416
-37.7007
-35.6632
-33.1388
-30.1467
-26.7236
-22.9109
-18.7627
-14.3387
-9.70971
-4.94711
-0.135551
4.64306
9.30021
13.7526
17.9124
21.7006
25.0366
27.8481
30.0729
31.6552
32.552
32.7289
32.1656
30.8514
28.7906
25.9984
22.5014
18.3356
13.5523
8.21108
2.37822
-3.87289
-10.4606
-17.3009
-24.3057
-31.3828
-38.4465
-45.4066
-52.1821
-58.6942
-64.8695
-70.6411
-75.9516
-80.7502
-84.998
-88.6685
-91.7367
-94.1914
-96.0308
-97.2645
-97.9065
-97.9869
-97.5307
-96.577
-95.1659
-93.3463
-91.1658
-88.6791
-85.9361
-82.9895
-79.8905
-76.6891
-73.4325
-70.1639
-66.9249
-63.7491
-60.6703
-57.7156
-54.9069
-52.2649
-49.7997
-47.5172
-45.4249
-43.522
-41.8078
-40.2735
-38.9142
-37.7137
-36.6652
-35.7508
-34.9616
-34.279
-33.6921
-33.183
-32.7412
-32.351
-32.0024
-31.6834
-31.3843
-31.0975
-30.8133
-30.5307
-30.2378
-29.9332
-29.6085
-29.2634
-28.8918
-28.4968
-28.0695
-27.6162
-27.1263
-26.6029
-26.0392
-25.4387
-24.7947
-24.1127
-23.3852
-22.6165
-21.8023
-20.9463
-20.0472
-19.1065
-18.1285
-17.1158
-16.0765
-15.0134
-13.9394
-12.8624
-11.7955
-10.7495
-9.74007
-8.78094
-7.8883
-7.07752
-6.36345
-5.76274
-5.2876
-4.94927
-4.75982
-4.72614
-4.85512
-5.15049
-5.61094
-6.2308
-7.0041
-7.91839
-8.95982
-10.1086
-11.3451
-12.6441
-13.9795
-15.3222
-16.642
-17.9094
-19.0926
-20.1612
-21.0865
-21.8417
-22.403
-22.749
-22.8637
-22.7349
-22.3534
-21.717
-20.8265
-19.6899
-18.3161
-16.722
-14.9261
-12.9519
-10.8253
-8.57626
-6.23373
-3.82904
-1.3941
1.04198
3.44673
5.79384
8.05507
10.2071
12.2298
14.1069
15.8249
17.3759
18.7544
19.957
20.9889
21.8558
22.567
23.1361
23.5755
23.9006
24.1291
24.2788
24.3682
24.4145
24.4369
24.4525
24.4771
24.5261
24.6111
24.7414
24.9279
25.1802
25.5012
25.8975
26.3677
26.9145
27.5347
28.2241
28.9809
29.7988
30.6749
31.6014
32.5747
33.5883
34.6361
35.7095
36.8042
37.9145
39.0338
40.1556
41.2751
42.3862
43.4848
44.5639
45.6215
46.6521
47.6533
48.6241
49.5588
50.4557
51.3114
52.1235
52.8908
53.6166
54.2966
54.9328
55.5246
56.075
56.5838
57.0538
57.4875
57.8893
58.2611
58.6059
58.9273
59.227
59.5102
59.7792
60.0376
60.2872
60.5301
60.767
60.9996
61.2309
61.4578
61.6795
61.8944
62.0996
62.2941
62.4773
62.6453
62.7956
62.9258
63.0337
63.1172
63.1761
63.2087
63.2179
63.2012
63.1618
63.1001
63.0219
62.9279
62.823
62.7116
62.6006
62.495
62.4009
62.3259
62.2753
62.2579
62.2793
62.3473
62.4703
62.6508
62.8935
63.2022
63.5838
64.0367
64.5659
65.1668
65.8438
66.5891
67.3996
68.2703
69.1996
70.1759
71.1932
72.2407
73.3082
74.3852
75.4599
76.521
77.5564
78.5543
79.503
80.3916
81.209
81.9458
82.5952
83.1474
83.5983
83.9412
84.1727
84.2906
84.2955
84.1865
83.9675
83.6399
83.2087
82.6775
82.0526
81.3393
80.5441
79.6722
78.7274
77.7163
76.6428
75.511
74.3195
73.0737
71.7705
70.4131
68.998
67.5256
65.9944
64.3997
62.7384
61.006
59.2006
57.3166
55.3522
53.3027
51.1661
48.9409
46.6276
44.2257
41.7379
39.1659
36.5143
33.7877
30.9933
28.1383
25.2324
22.2838
19.2982
16.2918
13.2738
10.2599
7.2629
4.29684
1.37366
-1.49014
-4.27703
-6.97566
-9.56976
-12.048
-14.3946
-16.5992
-18.6485
-20.5334
-22.2423
-23.77
-25.1077
-26.2534
-27.2041
-27.9601
-28.5259
-28.9027
-29.0958
-29.1143
-28.9703
-28.6747
-28.2423
-27.6874
-27.0268
-26.277
-25.4543
-24.5785
-23.6646
-22.7329
-21.8002
-20.8812
-19.9882
-19.1348
-18.3334
-17.5899
-16.9123
-16.3023
-15.7644
-15.2953
-14.8959
-14.5584
-14.2793
-14.0491
-13.8598
-13.7019
-13.5646
-13.4401
-13.3191
-13.1932
-13.0587
-12.9066
-12.7339
-12.5366
-12.3148
-12.069
-11.8064
-11.5287
-11.2446
-10.9615
-10.6882
-10.4368
-10.2218
-10.0534
-9.94423
-9.90627
-9.95038
-10.0871
-10.326
-10.673
-11.1341
-11.7099
-12.4005
-13.2017
-14.1096
-15.1133
-16.2049
-17.3669
-18.5844
-19.8377
-21.107
-22.3715
-23.612
-24.8041
-25.9269
-26.9587
-27.8819
-28.6766
-29.3262
-29.8178
-30.1401
-30.2866
-30.252
-30.0363
-29.641
-29.073
-28.3379
-27.4517
-26.4269
-25.2837
-24.0391
-22.7172
-21.3404
-19.9331
-18.5174
-17.1183
-15.7595
-14.4608
-13.2423
-12.1208
-11.1127
-10.2271
-9.47475
-8.85826
-8.38257
-8.04143
-7.83013
-7.73844
-7.75444
-7.86232
-8.04641
-8.28533
-8.55551
-8.83674
-9.1011
-9.33247
-9.50913
-9.61219
-9.62125
-9.52411
-9.30869
-8.96706
-8.4954
-7.89241
-7.16072
-6.30784
-5.3453
-4.28653
-3.1499
-1.95503
-0.72422
0.51899
1.74989
2.94425
4.08118
5.1354
6.08439
6.91231
7.60497
8.15017
8.54133
8.77437
8.85213
8.77794
8.5585
8.20919
7.74338
7.18333
6.54888
5.86611
5.15678
4.44916
3.76657
3.13504
2.57643
2.11147
1.75927
1.53129
1.43763
1.48468
1.67517
2.00554
2.47068
3.0579
3.75222
4.53512
5.38751
6.28282
7.19639
8.09913
8.96365
9.76149
10.4654
11.0493
11.4903
11.7664
11.858
11.7528
11.4392
10.9132
10.1722
9.22108
8.06629
6.72203
5.2051
3.53614
1.74032
-0.155993
-2.12104
-4.12492
-6.13107
-8.10973
-10.0269
-11.8498
-13.5459
-15.0866
-16.445
-17.5972
-18.5239
-19.2079
-19.6373
-19.8035
-19.702
-19.3354
-18.7079
-17.8311
-16.7177
-15.387
-13.8593
-12.1597
-10.3139
-8.35109
-6.30117
-4.19433
-2.064
0.0616439
2.1532
4.18146
6.11911
7.94233
9.62766
11.1574
12.5151
13.6888
14.6709
15.4545
16.0373
16.4207
16.6108
16.6148
16.4436
16.11
15.6306
15.0221
14.3019
13.4912
12.6091
11.6775
10.7149
9.74298
8.78139
7.84624
6.95128
6.11045
5.33707
4.63727
4.0168
3.47965
3.02915
2.66073
2.37078
2.15226
1.99696
1.89434
1.83204
1.79823
1.7779
1.75803
1.72253
1.66011
1.5558
1.40087
1.18247
0.896205
0.539074
0.105627
-0.406654
-0.993248
-1.65076
-2.3695
-3.14048
-3.94987
-4.78312
-5.62361
-6.45247
-7.25301
-8.00576
-8.69295
-9.29608
-9.79983
-10.1874
-10.4491
-10.5754
-10.5601
-10.403
-10.1023
-9.66058
-9.08678
-8.39227
-7.5915
-6.7004
-5.74098
-4.73556
-3.70759
-2.68232
-1.68442
-0.741654
0.125588
0.89547
1.54808
2.06644
2.43647
2.64683
2.69251
2.57349
2.2904
1.85172
1.2666
0.550157
-0.279238
-1.19778
-2.18358
-3.20988
-4.2499
-5.27737
-6.26151
-7.17551
-7.99157
-8.68768
-9.23863
-9.62476
-9.82863
-9.83638
-9.6388
-9.22767
-8.60327
-7.76458
-6.72005
-5.47388
-4.04318
-2.44287
-0.691434
1.19209
3.18475
5.26183
7.40138
9.5779
11.7684
13.9482
16.0955
18.1896
20.2095
22.1373
23.9565
25.6513
27.2112
28.6265
29.8905
30.9987
31.9485
32.7406
33.3753
33.8567
34.1892
34.3786
34.4332
34.3643
34.1788
33.8865
33.4974
33.0231
32.4724
31.8556
31.1819
30.4615
29.7011
28.9094
28.0917
27.2531
26.3979
25.5269
24.6446
23.75
22.8453
21.9306
21.0043
20.061
19.1014
18.1211
17.1184
16.0876
15.0281
13.9366
12.8108
11.6462
10.4432
9.20151
7.91972
6.59772
5.23763
3.8434
2.41604
0.959085
-0.523601
-2.02429
-3.53988
-5.06209
-6.58584
-8.10476
-9.61025
-11.0968
-12.5538
-13.9781
-15.3575
-16.6861
-17.9551
-19.1609
-20.2934
-21.3494
-22.3212
-23.2016
-23.9893
-24.6757
-25.2645
-25.7484
-26.1332
-26.4143
-26.5984
-26.6873
-26.685
-26.5905
-26.4147
-26.1606
-25.8388
-25.4528
-25.0142
-24.5276
-24.0053
-23.4529
-22.8805
-22.2902
-21.6927
-21.0892
-20.4858
-19.8848
-19.2824
-18.6747
-18.0553
-17.418
-16.7499
-16.0411
-15.2738
-14.4324
-13.4981
-12.4555
-11.2832
-9.96562
-8.4836
-6.82368
-4.97187
-2.92164
-0.665426
1.79308
4.4533
7.3021
10.3252
13.497
16.7905
20.1677
23.5896
27.0081
30.372
33.626
36.7102
39.5624
42.1211
44.3231
46.1092
47.4221
48.2082
48.4191
48.0157
46.9651
45.2448
42.8424
39.7549
35.9909
31.5703
26.5224
20.891
14.7264
8.09347
1.06365
-6.28466
-13.8682
-21.5957
-29.3743
-37.1098
-44.7084
-52.0776
-59.126
-65.7733
-71.942
-77.5647
-82.5811
-86.943
-90.6116
-93.5611
-95.7764
-97.254
-98.002
-98.0397
-97.3972
-96.1126
-94.234
-91.8147
-88.9156
-85.6002
-81.9347
-77.9895
-73.8317
-69.5321
-65.1568
-60.7679
-56.4237
-52.1776
-48.0743
-44.1567
-40.4587
-37.0082
-33.8274
-30.9288
-28.3213
-26.006
-23.9804
-22.2349
-20.7525
-19.5221
-18.5228
-17.7355
-17.1339
-16.6992
-16.4075
-16.2366
-16.1616
-16.1645
-16.2248
-16.327
-16.4589
-16.6049
-16.7606
-16.911
-17.0552
-17.1828
-17.2959
-17.3873
-17.4575
-17.5053
-17.535
-17.5459
-17.5438
-17.5277
-17.5011
-17.4653
-17.4256
-17.382
-17.3409
-17.3004
-17.2681
-17.2403
-17.2222
-17.2115
-17.2097
-17.2157
-17.2297
-17.2512
-17.2802
-17.314
-17.3477
-17.3819
-17.4124
-17.436
-17.4445
-17.4362
-17.4038
-17.3425
-17.2417
-17.0986
-16.902
-16.6495
-16.3308
-15.9433
-15.4797
-14.9381
-14.3152
-13.6099
-12.8227
-11.9542
-11.0118
-9.99596
-8.91633
-7.77775
-6.59168
-5.36715
-4.117
-2.85286
-1.58798
-0.336905
0.88816
2.07289
3.20796
4.27814
5.27404
6.18561
7.00667
7.72987
8.35277
8.87141
9.28705
9.59956
9.80999
9.92498
9.95129
9.89491
9.76203
9.56372
9.30939
9.00966
8.67422
8.31371
7.93774
7.55757
7.18408
6.82631
6.49322
6.19372
5.93563
5.72711
5.57168
5.47966
5.4556
5.50576
5.63369
5.84398
6.13981
6.52271
6.99448
7.55393
8.19943
8.92855
9.73906
10.6251
11.5813
12.5987
13.6687
14.7806
15.9241
17.085
18.2496
19.4035
20.531
21.6181
22.6499
23.6123
24.4881
25.2682
25.9424
26.5016
26.9391
27.2507
27.4384
27.5007
27.4434
27.2724
26.9988
26.6343
26.1957
25.699
25.1653
24.6131
24.062
23.5353
23.0544
22.639
22.3076
22.0771
21.9596
21.9689
22.1138
22.3995
22.8273
23.3965
24.1015
24.9348
25.8852
26.9392
28.0804
29.2915
30.552
31.8429
33.1442
34.4362
35.6992
36.9163
38.0749
39.1574
40.1498
41.0457
41.8402
42.5292
43.1128
43.5921
43.9735
44.2621
44.4673
44.5982
44.6655
44.6819
44.6586
44.6098
44.5466
44.4813
44.4247
44.3854
44.3722
44.3911
44.4514
44.5523
44.6984
44.888
45.1242
45.4012
45.7205
46.0745
46.458
46.8673
47.2996
47.7488
48.2091
48.6777
49.1519
49.6276
50.1016
50.5723
51.0365
51.495
51.9463
52.3914
52.8321
53.2677
53.6969
54.122
54.5446
54.9643
55.381
55.7949
56.2046
56.6088
57.0076
57.3964
57.7738
58.1341
58.4722
58.7846
59.0677
59.3143
59.5222
59.6819
59.7874
59.8324
59.8117
59.7184
59.5476
59.2924
58.9457
58.5049
57.9644
57.3222
56.5752
55.7228
54.7621
53.6955
52.5236
51.2494
49.8749
48.4057
46.8469
45.2058
43.4913
41.7105
39.8743
37.9911
36.0716
34.1268
32.1714
30.2129
28.2643
26.3347
24.4358
22.576
20.7642
19.0092
17.3182
15.6976
14.1527
12.6879
11.3053
10.0082
8.79835
7.67619
6.64087
5.69196
4.82754
4.04615
3.34478
2.72251
2.17617
1.70502
1.3099
0.986146
0.731738
0.545959
0.428066
0.376864
0.39384
0.47496
0.618507
0.822954
1.08605
1.40547
1.77914
2.20104
2.66416
3.16361
3.69347
4.24504
4.80938
5.37779
5.93883
6.48413
7.00314
7.48651
7.92406
8.30714
8.62734
8.87827
9.05683
9.15698
9.17595
9.11366
8.96915
8.74762
8.45401
8.095
7.67565
7.20817
6.70252
6.17073
5.62241
5.07142
4.52735
4.00393
3.51302
3.06311
2.6629
2.31911
2.03724
1.82054
1.66775
1.58197
1.56134
1.60166
1.69564
1.83909
2.0235
2.24117
2.48264
2.73837
3.00042
3.25762
3.50125
3.72358
3.91975
4.08223
4.2056
4.28818
4.32826
4.32612
4.28424
4.20401
4.09149
3.95008
3.78415
3.6019
3.41093
3.21739
3.02918
2.85227
2.69437
2.55931
2.44959
2.37143
2.32761
2.32079
2.35276
2.42283
2.53188
2.67687
2.85784
3.06934
3.31036
3.57435
3.85745
4.155
4.46382
4.77838
5.09322
5.40515
5.70876
6.00174
6.28055
6.54203
6.77919
6.9929
7.17795
7.33428
7.45648
7.54545
7.59929
7.61624
7.59402
7.53163
7.42667
7.27896
7.08822
6.85258
6.57328
6.24735
5.87502
5.4548
4.98742
4.47118
3.90772
3.29542
2.63552
1.92765
1.16969
0.364965
-0.486082
-1.3808
-2.31777
-3.29363
-4.30666
-5.35268
-6.42758
-7.5264
-8.64131
-9.76829
-10.8996
-12.0293
-13.1489
-14.2508
-15.326
-16.3652
-17.3581
-18.2959
-19.1687
-19.9676
-20.6832
-21.3079
-21.8353
-22.2576
-22.5701
-22.7672
-22.8454
-22.8034
-22.6421
-22.3607
-21.9609
-21.4473
-20.8234
-20.0981
-19.2785
-18.3751
-17.3967
-16.3566
-15.2665
-14.1403
-12.9916
-11.834
-10.6845
-9.55372
-8.45703
-7.40529
-6.41214
-5.48734
-4.63967
-3.87881
-3.21275
-2.64763
-2.18472
-1.83015
-1.58287
-1.44553
-1.41656
-1.49339
-1.67264
-1.94891
-2.31672
-2.76793
-3.2973
-3.89384
-4.54972
-5.25468
-6.00134
-6.77871
-7.58196
-8.39808
-9.21929
-10.0365
-10.8415
-11.6272
-12.3888
-13.1182
-13.8086
-14.4569
-15.0601
-15.6147
-16.1166
-16.5663
-16.9615
-17.3043
-17.596
-17.8393
-18.0377
-18.1947
-18.3171
-18.4084
-18.476
-18.5249
-18.5606
-18.591
-18.6225
-18.6615
-18.7123
-18.7814
-18.8733
-18.9903
-19.1328
-19.3031
-19.5
-19.7212
-19.962
-20.2185
-20.4827
-20.7489
-21.0086
-21.2526
-21.4709
-21.6536
-21.7897
-21.8703
-21.8865
-21.8301
-21.6963
-21.4774
-21.1705
-20.7731
-20.2885
-19.716
-19.0598
-18.3273
-17.5266
-16.6689
-15.7668
-14.8338
-13.8826
-12.9314
-11.9951
-11.0917
-10.2394
-9.45243
-8.74562
-8.13242
-7.62725
-7.23749
-6.97542
-6.84237
-6.84289
-6.97643
-7.24246
-7.63457
-8.14499
-8.76533
-9.48244
-10.285
-11.1585
-12.0865
-13.0523
-14.0377
-15.0248
-15.9959
-16.9348
-17.8249
-18.6488
-19.3953
-20.0517
-20.6097
-21.0612
-21.4019
-21.6265
-21.7364
-21.7311
-21.6157
-21.3954
-21.076
-20.6646
-20.1699
-19.5997
-18.9647
-18.2742
-17.5375
-16.7631
-15.9596
-15.1327
-14.2903
-13.4392
-12.5814
-11.722
-10.8596
-9.99608
-9.12871
-8.25548
-7.37411
-6.48309
-5.57791
-4.65561
-3.71261
-2.74553
-1.75368
-0.736058
0.306299
1.37185
2.45639
3.55531
4.66152
5.76907
6.86479
7.93876
8.97645
9.96661
10.8917
11.7353
12.4827
13.1168
13.6244
13.9898
14.2021
14.2478
14.1205
13.8115
13.3185
12.6397
11.7778
10.7396
9.53083
8.16246
6.64854
5.00637
3.25402
1.41326
-0.493298
-2.44076
-4.40481
-6.35649
-8.27369
-10.1315
-11.9071
-13.576
-15.1209
-16.5241
-17.7714
-18.8518
-19.7565
-20.4807
-21.0216
-21.3816
-21.563
-21.5725
-21.4194
-21.1154
-20.6733
-20.1056
-19.4303
-18.6647
-17.8243
-16.9251
-15.9838
-15.0196
-14.0439
-13.0733
-12.1178
-11.1895
-10.2983
-9.45654
-8.66909
-7.9483
-7.29405
-6.71463
-6.21073
-5.78977
-5.45117
-5.20027
-5.03692
-4.96559
-4.98664
-5.10263
-5.31714
-5.62921
-6.04592
-6.56774
-7.20081
-7.94624
-8.80829
-9.78469
-10.8802
-12.0888
-13.4154
-14.8554
-16.4055
-18.0553
-19.8011
-21.6295
-23.5308
-25.4882
-27.4859
-29.5016
-31.5155
-33.5003
-35.4322
-37.2794
-39.0148
-40.6035
-42.0155
-43.2165
-44.1732
-44.8519
-45.2205
-45.2506
-44.9102
-44.1742
-43.0191
-41.4293
-39.3876
-36.8888
-33.9248
-30.4983
-26.6171
-22.2974
-17.5602
-12.4356
-6.95843
-1.17259
4.87441
11.1282
17.5276
24.0069
30.496
36.923
43.2098
49.2776
55.0497
60.4481
65.3986
69.8256
73.6639
76.8482
79.3257
81.0472
81.9739
82.0742
81.3306
79.7325
77.2853
74.0044
69.914
65.0537
59.4685
53.2176
46.3671
38.9947
31.1808
23.0144
14.5878
5.99618
-2.66144
-11.2893
-19.7901
-28.0712
-36.0444
-43.6306
-50.7514
-57.3418
-63.3418
-68.7057
-73.3919
-77.3735
-80.6317
-83.1602
-84.9607
-86.0456
-86.4357
-86.1591
-85.2529
-83.7569
-81.722
-79.1991
-76.2453
-72.9161
-69.2725
-65.3727
-61.2764
-57.0386
-52.7155
-48.3562
-44.0118
-39.7247
-35.5368
-31.4804
-27.5899
-23.8917
-20.4073
-17.1521
-14.14
-11.3742
-8.86294
-6.60364
-4.59502
-2.82704
-1.29323
0.0229754
1.13141
2.05274
2.79923
3.38695
3.83603
4.16242
4.38652
4.52218
4.58951
4.60191
4.57545
4.51888
4.44712
4.36388
4.28144
4.20338
4.13594
4.07642
4.02887
3.98905
3.95622
3.92294
3.88713
3.83813
3.77331
3.67883
3.55446
3.38755
3.17733
2.91373
2.5972
2.22279
1.79151
1.30249
0.758907
0.167731
-0.468096
-1.14148
-1.84373
-2.56219
-3.28847
-4.00405
-4.70289
-5.36802
-5.99187
-6.55989
-7.06439
-7.49432
-7.84369
-8.10579
-8.27664
-8.35548
-8.3405
-8.23223
-8.03687
-7.76307
-7.41594
-7.00267
-6.53498
-6.02179
-5.47543
-4.90426
-4.32178
-3.73496
-3.15493
-2.58949
-2.04402
-1.52072
-1.02327
-0.5514
-0.103314
0.322526
0.732062
1.12999
1.52357
1.91816
2.32323
2.74408
3.18964
3.66458
4.1751
4.72807
5.32276
5.95996
6.63832
7.35452
8.10426
8.88364
9.68249
10.493
11.3035
12.1042
12.8829
13.6283
14.329
14.9746
15.5551
16.0615
16.4877
16.8282
17.0804
17.2416
17.3146
17.3011
17.208
17.0409
16.8104
16.5237
16.196
15.8389
15.4671
15.091
14.7273
14.3885
14.0874
13.8334
13.6372
13.5078
13.45
13.4679
13.5627
13.7343
13.9795
14.2948
14.6722
15.1049
15.5805
16.0883
16.6149
17.1463
17.6695
18.1717
18.6397
19.061
19.4251
19.722
19.9441
20.0829
20.137
20.106
19.9894
19.79
19.5136
19.1696
18.7667
18.3174
17.8339
17.3299
16.822
16.3274
15.8619
15.4437
15.0865
14.8065
14.6172
14.5314
14.5595
14.7113
14.9922
15.4072
15.9578
16.6426
17.4602
18.4064
19.4729
20.6521
21.9312
23.2957
24.7335
26.2308
27.7699
29.334
30.907
32.4719
34.0135
35.5173
36.9682
38.3556
39.6656
40.8903
42.0194
43.0465
43.9648
44.7721
45.4657
46.0447
46.5112
46.868
47.1199
47.2688
47.3247
47.295
47.1884
47.0146
46.7828
46.5044
46.1882
45.8475
45.4899
45.1275
44.7669
44.4174
44.0855
43.7803
43.5047
43.2651
43.0619
42.8942
42.7646
42.6712
42.6109
42.5794
42.571
42.5786
42.5951
42.6115
42.6193
42.6065
42.5665
42.4899
42.3687
42.1953
41.9616
41.6621
41.2908
40.8446
40.3215
39.7203
39.0431
38.2938
37.4751
36.5953
35.6576
34.6713
33.6422
32.5811
31.4946
30.3925
29.2819
28.1721
27.0684
25.9766
24.9018
23.8477
22.8159
21.8081
20.8227
19.8565
18.9085
17.9756
17.0529
16.1364
15.2204
14.298
13.3667
12.423
11.4627
10.4825
9.48218
8.46226
7.42358
6.36966
5.30283
4.22887
3.15187
2.07734
1.01357
-0.0325251
-1.05372
-2.04423
-2.99571
-3.9043
-4.76205
-5.56786
-6.31559
-7.00255
-7.62976
-8.1988
-8.71182
-9.17553
-9.59238
-9.96583
-10.3055
-10.6184
-10.9134
-11.1983
-11.4817
-11.7699
-12.0717
-12.3884
-12.7312
-13.1039
-13.5108
-13.9551
-14.4367
-14.953
-15.5043
-16.0896
-16.7036
-17.3435
-18.0005
-18.668
-19.3377
-20.0031
-20.6541
-21.2828
-21.8791
-22.4359
-22.9417
-23.3909
-23.7727
-24.0808
-24.3062
-24.4425
-24.4847
-24.428
-24.2697
-24.0062
-23.6388
-23.1684
-22.5979
-21.9324
-21.1772
-20.3405
-19.4318
-18.4625
-17.4452
-16.395
-15.3275
-14.2605
-13.2114
-12.2002
-11.2445
-10.3666
-9.58142
-8.90559
-8.35595
-7.9487
-7.69543
-7.60809
-7.69224
-7.95194
-8.38859
-9.00227
-9.78461
-10.7251
-11.8121
-13.0296
-14.3588
-15.7797
-17.2681
-18.8013
-20.3512
-21.8886
-23.39
-24.8289
-26.1816
-27.4249
-28.54
-29.5118
-30.3251
-30.9685
-31.4378
-31.731
-31.8488
-31.7949
-31.5802
-31.2174
-30.7208
-30.1076
-29.3969
-28.6077
-27.7626
-26.885
-25.9931
-25.1038
-24.2367
-23.4062
-22.6259
-21.9075
-21.2553
-20.6734
-20.1602
-19.7145
-19.3284
-18.9946
-18.7002
-18.4319
-18.1764
-17.9194
-17.6462
-17.3434
-16.9977
-16.5927
-16.1243
-15.5861
-14.9741
-14.2852
-13.5243
-12.6961
-11.8099
-10.8766
-9.91132
-8.93419
-7.96072
-7.01143
-6.10673
-5.267
-4.5134
-3.86819
-3.3465
-2.96355
-2.73331
-2.66677
-2.7695
-3.04739
-3.4964
-4.11356
-4.89053
-5.81577
-6.8754
-8.05212
-9.32672
-10.6795
-12.0867
-13.527
-14.976
-16.4092
-17.8068
-19.1476
-20.4148
-21.5924
-22.6674
-23.6294
-24.4704
-25.1825
-25.7662
-26.222
-26.5528
-26.7612
-26.8565
-26.8465
-26.7414
-26.5505
-26.2856
-25.9573
-25.5763
-25.1528
-24.6951
-24.2115
-23.7078
-23.1894
-22.6606
-22.1242
-21.5818
-21.0373
-20.4874
-19.9334
-19.372
-18.8024
-18.223
-17.6321
-17.0298
-16.4171
-15.7942
-15.1648
-14.5307
-13.8939
-13.2619
-12.6397
-12.0363
-11.4588
-10.916
-10.4159
-9.96828
-9.57903
-9.25993
-9.01823
-8.8623
-8.79934
-8.83301
-8.96918
-9.20873
-9.55147
-9.99746
-10.5459
-11.1909
-11.9272
-12.7467
-13.6445
-14.6066
-15.6209
-16.6751
-17.7576
-18.8532
-19.9461
-21.0233
-22.0699
-23.072
-24.0182
-24.8938
-25.6886
-26.3894
-26.9882
-27.4751
-27.8459
-28.0929
-28.2107
-28.1988
-28.0535
-27.7793
-27.3791
-26.8578
-26.2192
-25.4728
-24.6276
-23.694
-22.6834
-21.6084
-20.4848
-19.3235
-18.1437
-16.9554
-15.7739
-14.6128
-13.4883
-12.4107
-11.3884
-10.4356
-9.55925
-8.76944
-8.06973
-7.46655
-6.9591
-6.55165
-6.24199
-6.0282
-5.90353
-5.86357
-5.90299
-6.01072
-6.17803
-6.39238
-6.64104
-6.91253
-7.19627
-7.47947
-7.75124
-7.9996
-8.21335
-8.38309
-8.49796
-8.55195
-8.53737
-8.4496
-8.28361
-8.03765
-7.71122
-7.30336
-6.81531
-6.2495
-5.60782
-4.89682
-4.12209
-3.29029
-2.40827
-1.4842
-0.52735
0.454546
1.45328
2.45873
3.46011
4.45054
5.42035
6.36264
7.26792
8.13178
8.94748
9.71063
10.4165
11.0608
11.6418
12.1554
12.6027
12.9803
13.2908
13.5311
13.7034
13.8064
13.8404
13.8073
13.7099
13.5474
13.3196
13.0286
12.6715
12.2517
11.7655
11.2166
10.6078
9.93631
9.20293
8.40709
7.55001
6.63134
5.65154
4.61384
3.52366
2.3824
1.19482
-0.0348915
-1.30215
-2.59926
-3.9187
-5.25301
-6.59334
-7.93175
-9.25809
-10.5643
-11.843
-13.0832
-14.2778
-15.4169
-16.4957
-17.5037
-18.4344
-19.282
-20.0439
-20.7136
-21.2862
-21.7615
-22.1378
-22.4165
-22.5978
-22.6851
-22.6835
-22.5953
-22.4281
-22.1857
-21.8776
-21.5081
-21.0886
-20.6235
-20.1269
-19.6016
-19.0564
-18.5015
-17.9465
-17.3993
-16.8671
-16.3597
-15.8839
-15.4486
-15.057
-14.7189
-14.4376
-14.2207
-14.0735
-13.9968
-13.99
-14.0563
-14.1951
-14.4055
-14.6804
-15.0201
-15.4131
-15.8588
-16.342
-16.8593
-17.3895
-17.9293
-18.4583
-18.9659
-19.4326
-19.8424
-20.1774
-20.415
-20.5356
-20.5162
-20.338
-19.9772
-19.4158
-18.6315
-17.6105
-16.3317
-14.785
-12.9539
-10.8338
-8.41478
-5.6992
-2.68588
0.613983
4.19284
8.03077
12.1086
16.3979
20.8662
25.4735
30.1769
34.9264
39.6706
44.3512
48.9092
53.2841
57.4084
61.2172
64.6446
67.6265
70.1002
72.0067
73.293
73.9123
73.8233
72.9939
71.4003
69.0288
65.8769
61.9562
57.2835
51.8889
45.8172
39.1229
31.8713
24.1378
16.0061
7.56872
-1.07708
-9.83054
-18.584
-27.2324
-35.6665
-43.7851
-51.4847
-58.6694
-65.2531
-71.1564
-76.3134
-80.6696
-84.1806
-86.8149
-88.5581
-89.4076
-89.3756
-88.4871
-86.7805
-84.3077
-81.1271
-77.311
-72.9337
-68.0799
-62.8372
-57.2958
-51.5483
-45.6845
-39.7945
-33.9602
-28.2625
-22.77
-17.5505
-12.6569
-8.13815
-4.02928
-0.357699
2.86305
5.62345
7.92558
9.78091
11.2128
12.2418
12.903
13.2286
13.2646
13.0469
12.6185
12.0225
11.3051
10.5044
9.65977
8.80693
7.97759
7.20126
6.49939
5.89584
5.40112
5.03322
4.80064
4.70862
4.75818
4.94752
5.26742
5.71687
6.2807
6.95625
7.72531
8.58343
9.51264
10.5061
11.5435
12.6193
13.718
14.83
15.9388
17.0368
18.1142
19.158
20.1589
21.1038
21.9839
22.7863
23.5028
24.1214
24.6354
25.0337
25.3124
25.4612
25.4782
25.3561
25.0914
24.6851
24.1402
23.4594
22.6506
21.7199
20.6781
19.5368
18.3107
17.0149
15.6721
14.2956
12.9089
11.5274
10.1728
8.86156
7.61365
6.44363
5.36519
4.3913
3.53004
2.7907
2.17567
1.68835
1.3242
1.08204
0.953269
0.930839
1.00328
1.15846
1.38599
1.66919
1.9957
2.35106
2.72557
3.10496
3.47941
3.84173
4.18708
4.51103
4.81409
5.09532
5.35638
5.60341
5.8408
6.07738
6.31776
6.57347
6.85313
7.16378
7.50967
7.8988
8.33372
8.81775
9.34796
9.92518
10.5464
11.2042
11.896
12.6059
13.3239
14.0345
14.7259
15.3807
15.9835
16.5194
16.9748
17.3358
17.5893
17.7262
17.7369
17.6172
17.3629
16.9754
16.4564
15.8126
15.0536
14.1899
13.233
12.2007
11.111
9.98319
8.83798
7.69656
6.57941
5.50902
4.50584
3.59003
2.77735
2.08774
1.53352
1.12939
0.886414
0.810091
0.906189
1.17421
1.61311
2.21727
2.97857
3.88626
4.93095
6.09462
7.36211
8.71377
10.1314
11.5928
13.0769
14.5621
16.0244
17.4465
18.8062
20.0877
21.2746
22.3519
23.3062
24.1275
24.8051
25.3363
25.7169
25.9481
26.0334
25.9765
25.7871
25.4725
25.0457
24.5186
23.9068
23.225
22.4937
21.7259
20.9412
20.1536
19.3812
18.6358
17.9321
17.2801
16.6881
16.1657
15.7139
15.3418
15.0478
14.8352
14.7002
14.6407
14.6532
14.73
14.8652
15.0501
15.2792
15.5426
15.8358
16.1481
16.4735
16.8057
17.1387
17.4694
17.7924
18.1073
18.4109
18.7034
18.9869
19.2593
19.5193
19.7695
20.0146
20.2518
20.4827
20.7065
20.9234
21.1321
21.3347
21.5262
21.7061
21.8692
22.0129
22.1328
22.2238
22.2824
22.3044
22.286
22.2238
22.1138
21.9513
21.7369
21.4696
21.1484
20.7713
20.3415
19.8589
19.3283
18.7527
18.1359
17.4833
16.7977
16.0843
15.3462
14.5897
13.8147
13.0243
12.2193
11.3998
10.5674
9.72244
8.86197
7.98443
7.08618
6.16411
5.21443
4.23184
3.21525
2.1618
1.06947
-0.0641576
-1.23711
-2.44718
-3.692
-4.96436
-6.25943
-7.56718
-8.87942
-10.1858
-11.4733
-12.7293
-13.9389
-15.0877
-16.1622
-17.1528
-18.0436
-18.8245
-19.4859
-20.0202
-20.4231
-20.6949
-20.8337
-20.8438
-20.7312
-20.5026
-20.1721
-19.7529
-19.2625
-18.7179
-18.1403
-17.5497
-16.9681
-16.4147
-15.9117
-15.4785
-15.1331
-14.8923
-14.7693
-14.7786
-14.9245
-15.2128
-15.6439
-16.2161
-16.9243
-17.762
-18.7153
-19.7688
-20.9068
-22.1133
-23.365
-24.6402
-25.9169
-27.1724
-28.3846
-29.5305
-30.5915
-31.5492
-32.3878
-33.0958
-33.6611
-34.0778
-34.3404
-34.4496
-34.4057
-34.2142
-33.8822
-33.4208
-32.8423
-32.1588
-31.3885
-30.5455
-29.6501
-28.7187
-27.7702
-26.8226
-25.8905
-24.9903
-24.1335
-23.3326
-22.5944
-21.928
-21.3356
-20.8232
-20.3863
-20.0242
-19.7305
-19.5005
-19.3248
-19.1942
-19.099
-19.0265
-18.967
-18.9077
-18.8397
-18.7502
-18.6328
-18.4782
-18.2819
-18.0331
-17.7348
-17.3857
-16.9879
-16.543
-16.0575
-15.5363
-14.9893
-14.427
-13.8592
-13.3005
-12.7591
-12.2468
-11.7747
-11.3585
-11.0024
-10.7156
-10.5027
-10.3677
-10.3114
-10.3345
-10.4331
-10.602
-10.8339
-11.1202
-11.4488
-11.8057
-12.1783
-12.5521
-12.9133
-13.246
-13.5386
-13.782
-13.9631
-14.0746
-14.1092
-14.0652
-13.9405
-13.7379
-13.4623
-13.1217
-12.7266
-12.2904
-11.8284
-11.3563
-10.8933
-10.4575
-10.0687
-9.7433
-9.50193
-9.35818
-9.32957
-9.42788
-9.66372
-10.0421
-10.569
-11.2452
-12.0674
-13.0314
-14.1259
-15.3397
-16.6561
-18.0584
-19.525
-21.0342
-22.5627
-24.0865
-25.5815
-27.0225
-28.3864
-29.6509
-30.7948
-31.8015
-32.6518
-33.3299
-33.8257
-34.1319
-34.2426
-34.1549
-33.8711
-33.3966
-32.7388
-31.9068
-30.9157
-29.7803
-28.5198
-27.1538
-25.7041
-24.1941
-22.6464
-21.087
-19.5375
-18.0217
-16.5615
-15.178
-13.8911
-12.72
-11.6794
-10.7844
-10.044
-9.4666
-9.05671
-8.81707
-8.746
-8.84017
-9.09167
-9.49288
-10.0294
-10.6866
-11.4475
-12.2944
-13.207
-14.1601
-15.1371
-16.1161
-17.0765
-17.9959
-18.858
-19.6443
-20.3407
-20.9331
-21.4118
-21.7689
-21.9993
-22.1005
-22.0735
-21.9238
-21.6548
-21.2763
-20.7969
-20.2282
-19.5833
-18.8759
-18.12
-17.3303
-16.5193
-15.7004
-14.883
-14.0754
-13.2857
-12.5218
-11.7839
-11.0733
-10.3871
-9.72399
-9.07592
-8.43313
-7.78972
-7.13684
-6.46469
-5.76482
-5.02705
-4.24229
-3.40488
-2.50797
-1.55105
-0.533539
0.541285
1.66771
2.83822
4.04392
5.27016
6.50392
7.72558
8.91762
10.0591
11.1309
12.1117
12.9838
13.7272
14.3257
14.7648
15.0339
15.1244
15.0308
14.7529
14.2908
13.6539
12.8517
11.9002
10.8172
9.62369
8.33977
6.99492
5.61522
4.23085
2.87308
1.56739
0.341036
-0.780054
-1.77258
-2.6153
-3.28862
-3.78148
-4.08358
-4.1905
-4.09746
-3.81144
-3.33926
-2.69297
-1.88566
-0.937662
0.130308
1.29387
2.52821
3.80581
5.09999
6.38331
7.62919
8.81318
9.91165
10.905
11.7747
12.5078
13.0949
13.5274
13.8008
13.9173
13.8809
13.6992
13.3819
12.9432
12.3986
11.7649
11.0589
10.3011
9.51065
8.70613
7.90407
7.12211
6.37477
5.6745
5.03258
4.45528
3.94882
3.51352
3.15057
2.8541
2.6182
2.43399
2.2852
2.16602
2.06142
1.95994
1.8421
1.69957
1.51438
1.27918
0.978951
0.609434
0.161082
-0.367901
-0.981306
-1.67722
-2.45088
-3.29886
-4.20978
-5.17874
-6.19327
-7.24235
-8.31073
-9.38588
-10.4498
-11.4913
-12.4903
-13.4395
-14.3217
-15.1305
-15.8485
-16.4746
-16.9968
-17.4135
-17.7153
-17.9032
-17.971
-17.9205
-17.7477
-17.4533
-17.0341
-16.4883
-15.8132
-15.004
-14.058
-12.9666
-11.7228
-10.3191
-8.74874
-7.00057
-5.06644
-2.93727
-0.609545
1.92673
4.67145
7.63002
10.7958
14.1675
17.7324
21.4776
25.3803
29.4174
33.5556
37.7606
41.9912
46.2004
50.3363
54.3462
58.1739
61.7592
65.0411
67.9606
70.4622
72.4871
73.9861
74.9094
75.2147
74.869
73.8486
72.1351
69.7245
66.6172
62.8251
58.3739
53.298
47.6421
41.4576
34.8104
27.7713
20.4186
12.8346
5.10894
-2.66795
-10.4035
-18.0095
-25.3914
-32.4642
-39.1429
-45.354
-51.0247
-56.0954
-60.513
-64.2347
-67.2308
-69.4845
-70.9848
-71.7319
-71.7419
-71.0376
-69.6553
-67.6377
-65.0384
-61.9181
-58.3424
-54.3819
-50.1119
-45.6092
-40.9527
-36.2203
-31.4881
-26.8281
-22.3111
-18.0002
-13.954
-10.2209
-6.84663
-3.86423
-1.3019
0.824693
2.50539
3.74721
4.55288
4.94228
4.9375
4.57311
3.88414
2.9161
1.71339
0.328363
-1.18843
-2.78303
-4.40258
-5.99506
-7.50998
-8.90169
-10.1252
-11.1472
-11.9289
-12.4446
-12.6703
-12.592
-12.1994
-11.4918
-10.4721
-9.15631
-7.55527
-5.69465
-3.59726
-1.29928
1.16989
3.77062
6.46651
9.21431
11.9761
14.7064
17.371
19.9294
22.35
24.6021
26.6568
28.4896
30.0821
31.4213
32.4959
33.2988
33.8312
34.0992
34.1099
33.8756
33.4129
32.7445
31.8896
30.876
29.7268
28.4733
27.1386
25.7523
24.3377
22.9222
21.5263
20.1737
18.8801
17.6612
16.5292
15.4958
14.5658
13.7429
13.0272
12.4164
11.9064
11.4876
11.1546
10.8962
10.7029
10.5616
10.4631
10.3953
10.349
10.3131
10.2815
10.2469
10.2058
10.1548
10.0931
10.0224
9.94429
9.86274
9.78315
9.71283
9.6583
9.62637
9.6256
9.66752
9.7552
9.8965
10.0947
10.3555
10.6792
11.0674
11.5173
12.0258
12.5871
13.1951
13.8411
14.5162
15.209
15.9072
16.5998
17.2734
17.9181
18.522
19.0757
19.5715
20.0003
20.3562
20.6346
20.8327
20.9511
20.9896
20.9531
20.8466
20.6767
20.4495
20.1754
19.8623
19.522
19.1639
18.7995
18.4382
18.0896
17.7643
17.4676
17.2078
16.9884
16.8148
16.6876
16.6092
16.5788
16.5966
16.6596
16.7646
16.9089
17.0858
17.2955
17.5342
17.7992
18.0876
18.3969
18.7239
19.069
19.43
19.8091
20.2089
20.6296
21.0713
21.5387
22.0318
22.5557
23.1138
23.7059
24.3319
24.9924
25.6881
26.4143
27.1689
27.9451
28.7367
29.5353
30.3339
31.121
31.8871
32.6198
33.3089
33.9416
34.5086
34.9978
35.4009
35.709
35.9168
36.0184
36.0128
35.8984
35.676
35.3517
34.9313
34.425
33.8428
33.1994
32.5087
31.7885
31.0558
30.3288
29.6272
28.9675
28.366
27.84
27.4055
27.0742
26.8581
26.764
26.7978
26.9612
27.2552
27.6744
28.2119
28.858
29.6
30.424
31.3132
32.2496
33.2131
34.1831
35.1394
36.0604
36.9264
37.718
38.4205
39.0153
39.492
39.8361
40.0388
40.0948
40.0042
39.7638
39.3785
38.8517
38.1913
37.4074
36.5107
35.516
34.4385
33.2934
32.0952
30.862
29.6114
28.3575
27.1159
25.9004
24.7234
23.5963
22.5249
21.5203
20.5845
19.7254
18.945
18.2437
17.6198
17.0698
16.5877
16.1672
15.8028
15.4815
15.1943
14.9272
14.6712
14.4086
14.1264
13.8086
13.4428
13.0114
12.5005
11.8961
11.1846
10.355
9.39745
8.30357
7.06387
5.67852
4.14502
2.46747
0.651591
-1.29323
-3.35679
-5.52139
-7.77108
-10.0812
-12.4278
-14.783
-17.117
-19.4007
-21.604
-23.6953
-25.6407
-27.415
-28.9882
-30.3401
-31.4508
-32.3063
-32.896
-33.2154
-33.2691
-33.0607
-32.6048
-31.9192
-31.0313
-29.9677
-28.7632
-27.4544
-26.0835
-24.6905
-23.3181
-22.0089
-20.8036
-19.7407
-18.8543
-18.1744
-17.7258
-17.5269
-17.5886
-17.917
-18.5101
-19.3576
-20.4457
-21.7492
-23.2391
-24.8825
-26.642
-28.4768
-30.3438
-32.2001
-34.0016
-35.7074
-37.2762
-38.6734
-39.8678
-40.832
-41.545
-41.9919
-42.1645
-42.0603
-41.6855
-41.0487
-40.167
-39.0605
-37.7533
-36.2753
-34.656
-32.931
-31.1359
-29.3032
-27.468
-25.6595
-23.9074
-22.2359
-20.6695
-19.2237
-17.9167
-16.7536
-15.7405
-14.8775
-14.1648
-13.5946
-13.1595
-12.8475
-12.6468
-12.5422
-12.5197
-12.5642
-12.6606
-12.7976
-12.9605
-13.143
-13.3369
-13.5374
-13.7378
-13.94
-14.1422
-14.3497
-14.5652
-14.7943
-15.0387
-15.3081
-15.6068
-15.9421
-16.3208
-16.7441
-17.2154
-17.7338
-18.3027
-18.9144
-19.5664
-20.2488
-20.957
-21.6768
-22.3994
-23.1094
-23.7972
-24.4463
-25.0459
-25.5804
-26.0394
-26.4106
-26.686
-26.8576
-26.9158
-26.8627
-26.6961
-26.4205
-26.0376
-25.5576
-24.9877
-24.342
-23.6323
-22.8758
-22.0873
-21.2863
-20.4912
-19.7198
-18.9878
-18.3139
-17.713
-17.2001
-16.7877
-16.4849
-16.2996
-16.2359
-16.2958
-16.477
-16.7728
-17.1776
-17.6836
-18.2755
-18.9369
-19.6517
-20.4015
-21.1659
-21.9228
-22.6522
-23.3348
-23.9488
-24.4753
-24.8968
-25.1987
-25.3664
-25.3897
-25.2607
-24.9769
-24.5349
-23.9351
-23.1837
-22.2867
-21.2573
-20.1115
-18.864
-17.5331
-16.1399
-14.7086
-13.2598
-11.8208
-10.4107
-9.05377
-7.77031
-6.58125
-5.50449
-4.55655
-3.75147
-3.10232
-2.61577
-2.29512
-2.14569
-2.16612
-2.35423
-2.70408
-3.20733
-3.85344
-4.62997
-5.52094
-6.51195
-7.58535
-8.72359
-9.9068
-11.1179
-12.3374
-13.5489
-14.7332
-15.8757
-16.9611
-17.9752
-18.907
-19.7436
-20.4752
-21.0933
-21.5881
-21.957
-22.195
-22.3001
-22.2692
-22.105
-21.8108
-21.3871
-20.8396
-20.1705
-19.3865
-18.4933
-17.5012
-16.4153
-15.2429
-13.9946
-12.6826
-11.3154
-9.90579
-8.46348
-6.99725
-5.52168
-4.04758
-2.58801
-1.15205
0.245502
1.59439
2.8823
4.10024
5.23629
6.28094
7.22584
8.06169
8.78317
9.38675
9.86589
10.2176
10.4396
10.5313
10.4934
10.3267
10.0356
9.62505
9.10115
8.47233
7.74638
6.93328
6.04351
5.08832
4.07995
3.03068
1.95291
0.856685
-0.242641
-1.33664
-2.40999
-3.45621
-4.46096
-5.41692
-6.31431
-7.147
-7.90963
-8.59619
-9.20594
-9.73773
-10.1917
-10.5657
-10.8657
-11.0943
-11.258
-11.3614
-11.4127
-11.4204
-11.3914
-11.334
-11.2563
-11.1682
-11.0764
-10.9899
-10.9137
-10.8565
-10.8204
-10.8096
-10.8262
-10.869
-10.9405
-11.039
-11.1615
-11.3019
-11.4563
-11.6198
-11.7832
-11.9371
-12.0739
-12.1847
-12.2601
-12.2937
-12.2747
-12.1974
-12.0535
-11.8384
-11.5481
-11.1763
-10.7269
-10.2006
-9.60176
-8.93361
-8.20435
-7.4213
-6.5944
-5.73442
-4.85271
-3.9601
-3.07036
-2.19257
-1.34176
-0.527723
0.238265
0.94876
1.59532
2.17642
2.68545
3.12542
3.49434
3.8004
4.04592
4.23941
4.3925
4.5155
4.62553
4.73879
4.87184
5.03748
5.2575
5.54773
5.92698
6.41053
7.01342
7.74489
8.61799
9.6396
10.8147
12.1416
13.6212
15.2463
17.0089
18.8948
20.8885
22.9671
25.1092
27.2861
29.4702
31.6275
33.7256
35.7285
37.6003
39.3039
40.8029
42.064
43.0507
43.7316
44.0773
44.0615
43.6632
42.8661
41.6574
40.032
37.9875
35.5297
32.6689
29.4241
25.8174
21.8784
17.6426
13.152
8.45122
3.59097
-1.37582
-6.3947
-11.4049
-16.3462
-21.1581
-25.7802
-30.1552
-34.228
-37.9462
-41.2616
-44.1325
-46.5232
-48.4041
-49.7531
-50.5553
-50.8049
-50.502
-49.6563
-48.285
-46.4137
-44.0745
-41.3065
-38.1544
-34.6653
-30.8967
-26.9062
-22.7532
-18.4995
-14.2052
-9.92737
-5.72634
-1.65496
2.23419
5.89599
9.2893
12.3776
15.1348
17.5404
19.5804
21.2468
22.5416
23.4743
24.0559
24.3047
24.2461
23.9105
23.3297
22.5418
21.5825
20.4941
19.3123
18.0755
16.8208
15.5791
14.3861
13.2667
12.249
11.3528
10.5943
9.98228
9.52691
9.2292
9.08885
9.09823
9.24989
9.52902
9.92337
10.4139
10.9854
11.6168
12.2911
12.9873
13.6891
14.377
15.0389
15.6585
16.228
16.7399
17.1879
17.5713
17.8867
18.1373
18.3243
18.455
18.5348
18.5736
18.5801
18.5673
18.5431
18.5211
18.509
18.5189
18.5578
18.6377
18.7621
18.9391
19.1711
19.4629
19.8152
20.2307
20.7062
21.2411
21.8313
22.4725
23.16
23.8894
24.653
25.4417
26.2509
27.0699
27.8942
28.7153
29.5263
30.3181
31.0849
31.8171
32.5092
33.1525
33.7411
34.2666
34.7235
35.1035
35.4022
35.6151
35.7352
35.7576
35.6778
35.4928
35.199
34.7957
34.2806
33.655
32.9191
32.0757
31.128
30.0826
28.9447
27.7208
26.4219
25.0576
23.64
22.1814
20.6961
19.1996
17.7064
16.2332
14.7947
13.4069
12.085
10.8441
9.69875
8.65875
7.73968
6.95245
6.3064
5.80864
5.46535
5.27855
5.2515
5.38203
5.6697
6.11052
6.6979
7.42246
8.27641
9.24928
10.3282
11.5021
12.7548
14.0723
15.4378
16.8378
18.2548
19.6767
21.0852
22.4675
23.8086
25.0953
26.3162
27.4628
28.524
29.4921
30.3622
31.1297
31.7931
32.3494
32.8027
33.1571
33.4176
33.5905
33.6852
33.7125
33.6832
33.609
33.5052
33.3878
33.2706
33.1685
33.0967
33.0683
33.0979
33.1987
33.3802
33.6517
34.0195
34.4883
35.0596
35.7289
36.4966
37.3528
38.2926
39.3018
40.3704
41.4831
42.6237
43.7739
44.9147
46.0283
47.0936
48.0952
49.0113
49.8267
50.5251
51.0961
51.5269
51.8137
51.9474
51.9272
51.7522
51.4266
50.9568
50.3533
49.6268
48.7896
47.8598
46.8562
45.7979
44.7076
43.6037
42.5078
41.4408
40.427
39.4819
38.6263
37.8742
37.2408
36.7379
36.3747
36.1594
36.0982
36.191
36.4353
36.8279
37.3624
38.0286
38.8144
39.705
40.6835
41.7317
42.8315
43.9597
45.0948
46.2138
47.2943
48.3136
49.253
50.0883
50.7982
51.3661
51.7747
52.0104
52.0611
51.9169
51.5692
51.0145
50.2489
49.2759
48.0992
46.7259
45.1665
43.4316
41.5355
39.4941
37.3276
35.0524
32.6921
30.2634
27.7887
25.2879
22.7821
20.2902
17.8334
15.4258
13.0822
10.8161
8.63591
6.55327
4.57144
2.69749
0.931428
-0.725068
-2.27869
-3.72844
-5.07985
-6.33907
-7.51404
-8.61176
-9.64119
-10.6093
-11.5211
-12.3851
-13.2046
-13.9871
-14.7352
-15.4526
-16.1388
-16.7965
-17.4258
-18.0248
-18.5938
-19.1286
-19.6261
-20.0838
-20.5001
-20.8718
-21.1968
-21.4744
-21.7033
-21.8847
-22.0194
-22.1099
-22.1572
-22.1667
-22.1424
-22.0886
-22.0071
-21.9054
-21.7882
-21.6596
-21.5204
-21.3779
-21.2347
-21.0936
-20.9573
-20.8261
-20.7037
-20.5859
-20.4766
-20.3693
-20.264
-20.1556
-20.0434
-19.9218
-19.7908
-19.6442
-19.4826
-19.3002
-19.094
-18.8638
-18.6096
-18.3314
-18.0295
-17.7066
-17.3646
-17.0081
-16.6421
-16.2724
-15.904
-15.5447
-15.2048
-14.889
-14.6058
-14.3626
-14.1688
-14.0289
-13.9486
-13.9339
-13.9926
-14.1249
-14.3321
-14.616
-14.9762
-15.4102
-15.9158
-16.4859
-17.1141
-17.7917
-18.5092
-19.2565
-20.021
-20.792
-21.556
-22.3012
-23.0134
-23.683
-24.2977
-24.8476
-25.3237
-25.7171
-26.0209
-26.2305
-26.3446
-26.3594
-26.273
-26.0887
-25.8089
-25.4393
-24.9862
-24.4565
-23.8583
-23.2003
-22.494
-21.7471
-20.9712
-20.1749
-19.3671
-18.5568
-17.7521
-16.9613
-16.1944
-15.454
-14.7449
-14.0716
-13.4369
-12.8434
-12.2915
-11.7841
-11.3201
-10.9024
-10.5293
-10.2021
-9.92254
-9.68925
-9.50212
-9.36242
-9.27209
-9.23075
-9.23772
-9.29622
-9.4084
-9.57433
-9.7942
-10.0689
-10.3984
-10.7818
-11.2157
-11.699
-12.2287
-12.7988
-13.4031
-14.0349
-14.6855
-15.3466
-16.0093
-16.6626
-17.2967
-17.8995
-18.4613
-18.9703
-19.4186
-19.7951
-20.0914
-20.3007
-20.4188
-20.4406
-20.3613
-20.1839
-19.9131
-19.5501
-19.1005
-18.572
-17.974
-17.3172
-16.612
-15.8725
-15.1113
-14.3434
-13.5811
-12.8399
-12.1341
-11.4742
-10.8715
-10.3357
-9.87552
-9.4967
-9.20559
-9.00346
-8.89365
-8.87258
-8.93636
-9.08206
-9.30306
-9.59319
-9.94551
-10.3501
-10.7975
-11.2776
-11.7776
-12.2908
-12.8089
-13.3219
-13.8174
-14.2924
-14.7411
-15.1581
-15.5383
-15.8798
-16.1823
-16.444
-16.6662
-16.8486
-16.9914
-17.0978
-17.1706
-17.2108
-17.2221
-17.2047
-17.1613
-17.0912
-16.9946
-16.8711
-16.722
-16.5438
-16.3339
-16.0897
-15.8041
-15.4783
-15.1105
-14.6961
-14.2299
-13.7123
-13.1417
-12.5182
-11.8425
-11.1167
-10.3433
-9.52692
-8.67124
-7.78471
-6.87558
-5.95162
-5.02501
-4.1028
-3.1948
-2.31181
-1.46585
-0.665035
0.0849701
0.77274
1.39187
1.93549
2.40067
2.78323
3.08143
3.29505
3.42444
3.47284
3.4464
3.34758
3.18243
2.95709
2.67609
2.34841
1.98071
1.57994
1.14899
0.696463
0.226379
-0.256016
-0.749161
-1.24846
-1.75313
-2.26099
-2.77163
-3.28504
-3.80071
-4.31964
-4.84179
-5.36875
-5.90079
-6.43889
-6.98387
-7.53455
-8.09025
-8.64985
-9.21251
-9.77577
-10.3374
-10.8952
-11.4457
-11.9878
-12.5176
-13.0343
-13.5375
-14.0243
-14.4908
-14.9391
-15.3687
-15.7798
-16.173
-16.5491
-16.9099
-17.2558
-17.5901
-17.9115
-18.2246
-18.5252
-18.8089
-19.0787
-19.3348
-19.572
-19.7861
-19.9728
-20.1275
-20.2432
-20.313
-20.3298
-20.29
-20.1836
-20.0079
-19.7536
-19.4195
-18.9988
-18.4899
-17.8931
-17.2123
-16.4505
-15.6129
-14.7092
-13.7496
-12.7478
-11.7166
-10.6733
-9.63171
-8.61334
-7.63216
-6.71128
-5.86417
-5.11194
-4.46741
-3.94633
-3.55449
-3.30422
-3.19575
-3.23409
-3.41417
-3.7308
-4.17039
-4.72066
-5.36307
-6.07467
-6.82893
-7.5976
-8.35085
-9.05553
-9.67731
-10.1818
-10.5371
-10.708
-10.6652
-10.3782
-9.82499
-8.98082
-7.83123
-6.36203
-4.57123
-2.45469
-0.0192331
2.72329
5.75314
9.04576
12.5683
16.2839
20.1474
24.1128
28.1256
32.1316
36.0693
39.8816
43.5064
46.8841
49.9553
52.662
54.9497
56.7689
58.0735
58.8265
58.9975
58.5612
57.5039
55.8158
53.4984
50.562
47.027
42.9203
38.279
33.1474
27.5784
21.6301
15.3683
8.86117
2.18262
-4.59208
-11.3836
-18.1151
-24.7084
-31.0889
-37.1846
-42.9269
-48.2518
-53.1028
-57.4283
-61.1874
-64.3472
-66.8798
-68.7694
-70.0063
-70.5941
-70.539
-69.86
-68.5811
-66.7344
-64.3601
-61.5056
-58.2185
-54.5546
-50.5684
-46.3214
-41.8709
-37.2774
-32.5999
-27.8934
-23.2163
-18.6151
-14.1444
-9.84939
-5.76968
-1.93503
1.6203
4.87504
7.80781
10.4079
12.6649
14.5788
16.1485
17.3832
18.2906
18.8863
19.1868
19.2151
18.992
18.5401
17.8889
17.0643
16.0973
15.0159
13.851
12.631
11.3845
10.138
8.9191
7.74837
6.6527
5.64779
4.75662
3.99125
3.36801
2.8927
2.57658
2.42061
2.42812
2.59214
2.91171
3.37687
3.97794
4.69714
5.5222
6.43518
7.41604
8.44468
9.49802
10.554
11.589
12.5829
13.5129
14.3606
15.1077
15.7388
16.2418
16.6077
16.8301
16.9073
16.8388
16.6324
16.292
15.8292
15.2576
14.5966
13.8624
13.077
12.2611
11.4404
10.6353
9.87073
9.16592
8.54424
8.02049
7.61053
7.32687
7.17849
7.17055
7.30389
7.57787
7.98655
8.52169
9.1694
9.91661
10.7433
11.6331
12.5647
13.5182
14.4715
15.4049
16.2987
17.135
17.8984
18.5744
19.1495
19.6184
19.9759
20.2205
20.3543
20.3805
20.3062
20.1399
19.8918
19.5757
19.2063
18.7972
18.361
17.9139
17.4727
17.0473
16.6498
16.2895
15.9728
15.7085
15.5006
15.3521
15.2624
15.2321
15.2605
15.3431
15.4788
15.6606
15.8864
16.149
16.4461
16.7713
17.1217
17.493
17.8789
18.2821
18.7013
19.1374
19.5893
20.06
20.5501
21.0626
21.6004
22.1644
22.7574
23.3791
24.0304
24.7105
25.421
26.1577
26.9169
27.697
28.4947
29.3055
30.1238
30.9456
31.7654
32.5783
33.3756
34.1561
34.9136
35.6474
36.3553
37.0352
37.6865
38.3086
38.9011
39.4657
40.0062
40.522
41.0175
41.4907
41.9456
42.3798
42.7949
43.1874
43.5564
43.8972
44.2056
44.4754
44.6997
44.8711
44.9778
45.0154
44.9744
44.8492
44.6338
44.3229
43.9138
43.4053
42.8016
42.1044
41.3215
40.4627
39.5412
38.5725
37.5763
36.5723
35.5837
34.6331
33.744
32.9417
32.2498
31.6902
31.283
31.0449
30.9883
31.1243
31.4601
31.9951
32.7248
33.6399
34.7281
35.9687
37.3401
38.814
40.3613
41.9483
43.5405
45.1034
46.6039
48.0058
49.2774
50.388
51.3112
52.0245
52.5108
52.756
52.7557
52.5051
52.0084
51.2731
50.3142
49.1481
47.7978
46.2876
44.6467
42.9048
41.0912
39.2396
37.3809
35.5452
33.7598
32.0501
30.4397
28.9457
27.5873
26.3712
25.3046
24.3898
23.6282
23.012
22.5333
22.1806
21.941
21.7985
21.7363
21.7364
21.7791
21.8479
21.9213
21.9869
22.0298
22.0371
21.9945
21.8957
21.7324
21.5003
21.1973
20.8201
20.3671
19.8411
19.2433
18.5778
17.8471
17.0562
16.2075
15.3061
14.3578
13.3629
12.3253
11.244
10.12
8.95326
7.74097
6.48488
5.18219
3.83407
2.4399
0.999595
-0.485642
-2.01616
-3.58952
-5.20365
-6.8526
-8.53324
-10.2376
-11.9609
-13.6976
-15.437
-17.1698
-18.8863
-20.5759
-22.2301
-23.8381
-25.3916
-26.8835
-28.3037
-29.6445
-30.8999
-32.0632
-33.13
-34.0965
-34.9582
-35.7128
-36.3568
-36.888
-37.3036
-37.602
-37.7804
-37.836
-37.7662
-37.5717
-37.2454
-36.7842
-36.185
-35.4459
-34.5639
-33.537
-32.3655
-31.0503
-29.5944
-28.0029
-26.2829
-24.4431
-22.4961
-20.456
-18.3409
-16.1729
-13.973
-11.7674
-9.58191
-7.44542
-5.38744
-3.43947
-1.62963
0.0152749
1.46584
2.69816
3.68789
4.41821
4.87164
5.03797
4.91182
4.49214
3.78459
2.79834
1.55067
0.0598047
-1.64562
-3.54101
-5.58686
-7.75217
-9.9916
-12.2659
-14.5319
-16.7473
-18.873
-20.871
-22.7059
-24.3444
-25.7621
-26.9361
-27.8514
-28.495
-28.8653
-28.9609
-28.7925
-28.3747
-27.7255
-26.8709
-25.8363
-24.6546
-23.3582
-21.985
-20.5694
-19.1493
-17.7579
-16.4288
-15.191
-14.0715
-13.0915
-12.2688
-11.6145
-11.1374
-10.8368
-10.7103
-10.7485
-10.9337
-11.2539
-11.6869
-12.2122
-12.801
-13.4332
-14.0805
-14.7218
-15.3325
-15.8949
-16.3895
-16.805
-17.1285
-17.3563
-17.482
-17.5109
-17.4426
-17.2911
-17.0693
-16.7877
-16.4634
-16.1095
-15.743
-15.3779
-15.0304
-14.7098
-14.4315
-14.1963
-14.0079
-13.8663
-13.7723
-13.7149
-13.6899
-13.6799
-13.6744
-13.6535
-13.6003
-13.498
-13.3329
-13.0885
-12.7505
-12.312
-11.7648
-11.1099
-10.3475
-9.48794
-8.54057
-7.52515
-6.46062
-5.37484
-4.29613
-3.25547
-2.28236
-1.413
-0.680984
-0.117798
0.244047
0.381723
0.271332
-0.101432
-0.746958
-1.67008
-2.87001
-4.33511
-6.0478
-7.98514
-10.1188
-12.4108
-14.8199
-17.3012
-19.806
-22.2859
-24.6915
-26.9736
-29.0843
-30.9812
-32.6241
-33.982
-35.0308
-35.7493
-36.1266
-36.1593
-35.851
-35.2143
-34.2678
-33.039
-31.5622
-29.8715
-28.0064
-26.0115
-23.9277
-21.8035
-19.6773
-17.5963
-15.5978
-13.7169
-11.9836
-10.4205
-9.04546
-7.86907
-6.9008
-6.13549
-5.56837
-5.18589
-4.97681
-4.91549
-4.98194
-5.1472
-5.38587
-5.66946
-5.96785
-6.25969
-6.51844
-6.72851
-6.87048
-6.93486
-6.90965
-6.79425
-6.58588
-6.29131
-5.91861
-5.4782
-4.98154
-4.44723
-3.89105
-3.33399
-2.79637
-2.29626
-1.85754
-1.49086
-1.2126
-1.03246
-0.965691
-1.01109
-1.17497
-1.45148
-1.83906
-2.327
-2.90714
-3.56441
-4.28218
-5.04593
-5.83636
-6.63783
-7.43567
-8.20999
-8.93972
-9.61509
-10.2257
-10.7592
-11.2102
-11.5725
-11.8445
-12.0269
-12.1199
-12.1332
-12.0741
-11.9547
-11.7823
-11.5732
-11.3371
-11.0901
-10.8413
-10.6054
-10.3902
-10.2078
-10.0653
-9.96779
-9.9227
-9.92667
-9.98116
-10.0798
-10.2193
-10.3902
-10.5856
-10.7927
-11.0006
-11.1966
-11.3642
-11.4945
-11.5715
-11.5871
-11.5263
-11.384
-11.1476
-10.8154
-10.3796
-9.84201
-9.20387
-8.46689
-7.63571
-6.71677
-5.722
-4.65774
-3.5339
-2.36439
-1.16426
0.0548692
1.2763
2.48941
3.68131
4.83909
5.95023
7.00593
7.99572
8.91276
9.7523
10.5074
11.173
11.747
12.228
12.6147
12.9041
13.0987
13.2025
13.2123
13.1268
12.9477
12.672
12.3014
11.83
11.2609
10.5907
9.81954
8.94803
7.97222
6.89246
5.70696
4.4193
3.02765
1.53402
-0.0569453
-1.73764
-3.50254
-5.34297
-7.24799
-9.20629
-11.2037
-13.2293
-15.2638
-17.295
-19.302
-21.273
-23.185
-25.0259
-26.7745
-28.4182
-29.9401
-31.3245
-32.5637
-33.649
-34.5736
-35.3317
-35.923
-36.347
-36.6071
-36.7066
-36.654
-36.4577
-36.1299
-35.6788
-35.1228
-34.4726
-33.7486
-32.9639
-32.1386
-31.2881
-30.4283
-29.573
-28.7365
-27.929
-27.1617
-26.4395
-25.7685
-25.1495
-24.5828
-24.0574
-23.5742
-23.1184
-22.6847
-22.2538
-21.8163
-21.3534
-20.8495
-20.2885
-19.6486
-18.9115
-18.0585
-17.0783
-15.9485
-14.6599
-13.1962
-11.5542
-9.72334
-7.7029
-5.49287
-3.09823
-0.527627
2.20703
5.08828
8.09196
11.1985
14.3788
17.6046
20.8414
24.0539
27.2
30.2439
33.1423
35.8556
38.3398
40.5557
42.4618
44.0218
45.198
45.9601
46.2794
46.1317
45.5004
44.3688
42.7323
40.5863
37.9334
34.7878
31.1688
27.1014
22.6169
17.7548
12.5579
7.07745
1.3715
-4.50473
-10.4912
-16.5214
-22.5317
-28.4535
-34.2217
-39.7715
-45.0427
-49.9755
-54.5145
-58.6136
-62.2301
-65.3304
-67.882
-69.8704
-71.2825
-72.1166
-72.3748
-72.0731
-71.2314
-69.878
-68.048
-65.7821
-63.1255
-60.1289
-56.8457
-53.3309
-49.6426
-45.8341
-41.9623
-38.0769
-34.2261
-30.4559
-26.8063
-23.3129
-20.0032
-16.9023
-14.0269
-11.3887
-8.98917
-6.83052
-4.90298
-3.19965
-1.70313
-0.398638
0.734415
1.71632
2.57185
3.32024
3.97935
4.57257
5.11848
5.63091
6.1231
6.60281
7.07409
7.54074
7.9981
8.4467
8.87886
9.28767
9.65998
9.98882
10.2628
10.4723
10.6027
10.6507
10.6049
10.4659
10.2295
9.89968
9.47638
8.97072
8.38777
7.74321
7.04856
6.32064
5.57398
4.82656
4.09195
3.39024
2.73834
2.14957
1.63394
1.20401
0.870417
0.636142
0.508083
0.480347
0.551495
0.712572
0.955886
1.26892
1.64152
2.05674
2.50057
2.95663
3.4138
3.85483
4.26841
4.64224
4.96628
5.23401
5.44227
5.58779
5.67063
5.69447
5.66399
5.58793
5.47403
5.33666
5.18996
5.04594
4.91812
4.82069
4.76369
4.76238
4.82818
4.96948
5.19613
5.51118
5.91928
6.41934
7.01283
7.69286
8.45495
9.28917
10.1815
11.1252
12.1091
13.1195
14.1439
15.1688
16.1792
17.1664
18.1232
19.0371
19.9003
20.7065
21.4503
22.1307
22.7432
23.2929
23.7806
24.2138
24.5968
24.9383
25.248
25.5325
25.8007
26.0604
26.3194
26.5855
26.8648
27.1638
27.4899
27.8447
28.2341
28.6563
29.1114
29.5983
30.1135
30.6555
31.2192
31.8012
32.398
33.0026
33.6135
34.2212
34.8209
35.408
35.9783
36.5288
37.0583
37.5628
38.0415
38.4933
38.9203
39.3232
39.7033
40.0633
40.4064
40.7349
41.0509
41.3595
41.6651
41.9708
42.2794
42.5934
42.9153
43.2472
43.5903
43.946
44.3171
44.7015
45.103
45.5154
45.9379
46.3675
46.8025
47.2392
47.6729
48.1004
48.5146
48.912
49.283
49.6249
49.9309
50.1951
50.4102
50.57
50.6689
50.6996
50.658
50.5369
50.3317
50.036
49.6468
49.159
48.5709
47.8795
47.0859
46.1871
45.1825
44.0759
42.872
41.5736
40.1875
38.7194
37.1779
35.5713
33.91
32.2046
30.4692
28.714
26.9538
25.2013
23.4755
21.7866
20.1499
18.5785
17.0853
15.685
14.3925
13.2166
12.1671
11.2522
10.4774
9.85017
9.37331
9.04926
8.87671
8.85475
8.97769
9.24121
9.64172
10.1657
10.8038
11.5413
12.364
13.257
14.2096
15.1991
16.2059
17.2135
18.2023
19.1554
20.0557
20.8848
21.627
22.2653
22.7855
23.1749
23.4242
23.5209
23.4556
23.2238
22.8201
22.2436
21.4941
20.5746
19.4882
18.2431
16.8474
15.3121
13.6496
11.8728
9.99509
8.03391
6.00919
3.93411
1.82728
-0.296609
-2.42479
-4.53876
-6.62775
-8.67611
-10.6727
-12.6078
-14.4731
-16.2631
-17.9775
-19.6107
-21.1648
-22.6388
-24.0318
-25.3516
-26.6051
-27.797
-28.9334
-30.0233
-31.0711
-32.087
-33.0785
-34.051
-35.0098
-35.9611
-36.9099
-37.8569
-38.8034
-39.7495
-40.6935
-41.6342
-42.5737
-43.5027
-44.4161
-45.3073
-46.1682
-46.993
-47.774
-48.505
-49.1795
-49.7917
-50.3347
-50.8064
-51.2037
-51.525
-51.7697
-51.9393
-52.0361
-52.0645
-52.0289
-51.9372
-51.8003
-51.6255
-51.4264
-51.2103
-50.9934
-50.7819
-50.5957
-50.4372
-50.3191
-50.2474
-50.2304
-50.2749
-50.3829
-50.5616
-50.8118
-51.1348
-51.5254
-51.9846
-52.5045
-53.0843
-53.7137
-54.3896
-55.1021
-55.8454
-56.6105
-57.3902
-58.1744
-58.9564
-59.7312
-60.4888
-61.225
-61.93
-62.5954
-63.2154
-63.7829
-64.2906
-64.7304
-65.0938
-65.3744
-65.5589
-65.6384
-65.6012
-65.442
-65.1433
-64.6968
-64.0883
-63.3105
-62.3536
-61.2108
-59.8785
-58.3561
-56.6449
-54.7526
-52.6871
-50.4638
-48.1001
-45.6137
-43.0376
-40.4048
-37.7502
-35.1123
-32.5333
-30.0592
-27.7331
-25.6019
-23.7088
-22.0976
-20.8071
-19.8736
-19.3278
-19.1963
-19.4965
-20.238
-21.4249
-23.0548
-25.1111
-27.573
-30.4086
-33.5765
-37.0346
-40.7311
-44.6093
-48.6083
-52.6644
-56.7119
-60.6864
-64.5245
-68.1646
-71.5468
-74.6225
-77.349
-79.6856
-81.6033
-83.0785
-84.1025
-84.6671
-84.7798
-84.4498
-83.6968
-82.5481
-81.0402
-79.2086
-77.0944
-74.7431
-72.201
-69.5159
-66.7343
-63.9016
-61.0583
-58.2448
-55.4942
-52.8385
-50.3012
-47.9053
-45.6631
-43.589
-41.6888
-39.9654
-38.417
-37.0399
-35.8283
-34.7709
-33.8573
-33.0753
-32.4121
-31.8557
-31.3957
-31.0184
-30.7133
-30.4695
-30.2766
-30.1257
-30.0063
-29.9119
-29.8267
-29.7517
-29.6747
-29.5932
-29.4987
-29.386
-29.251
-29.0838
-28.8794
-28.6288
-28.3297
-27.9734
-27.5635
-27.0891
-26.5538
-25.9521
-25.2895
-24.5655
-23.7876
-22.9606
-22.0947
-21.1983
-20.2834
-19.3624
-18.4461
-17.5518
-16.6922
-15.8838
-15.1404
-14.4743
-13.8938
-13.4118
-13.0337
-12.7658
-12.6106
-12.5692
-12.6368
-12.8102
-13.0794
-13.437
-13.8739
-14.3749
-14.9256
-15.511
-16.1159
-16.7231
-17.3157
-17.8802
-18.4009
-18.8677
-19.2712
-19.6028
-19.8546
-20.0248
-20.1092
-20.1113
-20.0323
-19.8787
-19.657
-19.3755
-19.0437
-18.6714
-18.2688
-17.8474
-17.4187
-16.9915
-16.5749
-16.1762
-15.8009
-15.4543
-15.1386
-14.8556
-14.6061
-14.3868
-14.1951
-14.0246
-13.869
-13.7218
-13.578
-13.4278
-13.2634
-13.078
-12.8689
-12.6283
-12.3526
-12.0392
-11.6854
-11.2937
-10.8634
-10.4021
-9.91371
-9.40683
-8.88903
-8.37016
-7.85865
-7.36718
-6.90422
-6.48318
-6.11435
-5.80795
-5.57567
-5.42241
-5.35628
-5.37938
-5.4959
-5.70489
-6.0081
-6.39907
-6.87528
-7.42716
-8.04559
-8.72056
-9.4422
-10.1962
-10.9653
-11.7389
-12.5016
-13.2407
-13.9425
-14.5949
-15.1845
-15.7027
-16.1399
-16.4905
-16.7485
-16.9118
-16.9779
-16.9489
-16.8312
-16.6269
-16.3425
-15.986
-15.5692
-15.0995
-14.5878
-14.0435
-13.4752
-12.8943
