-4585.08
-4585.08
-4585.08
-4585.08
-4585.08
-4585.08
-4585.08
-4585.08
-4585.08
-4585.08
-4585.08
-4585.08
-4585.08
-4585.08
-4585.08
-4585.08
-4585.08
-4585.08
-4585.08
-4585.08
-4585.16
-4585.23
-4585.26
-4585.28
-4585.27
-4585.22
-4585.14
-4585.01
-4584.85
-4584.63
-4584.36
-4584.04
-4583.67
-4583.24
-4582.78
-4582.27
-4581.75
-4581.21
-4580.69
-4580.2
-4579.84
-4579.55
-4579.35
-4579.28
-4579.35
-4579.6
-4580.04
-4580.7
-4581.58
-4582.69
-4584.03
-4585.59
-4587.35
-4589.28
-4591.34
-4593.5
-4595.68
-4597.84
-4599.9
-4601.77
-4603.46
-4604.78
-4605.64
-4605.95
-4605.63
-4604.57
-4602.69
-4599.92
-4596.17
-4591.39
-4585.51
-4578.49
-4570.3
-4560.92
-4550.34
-4538.58
-4525.66
-4511.62
-4496.49
-4480.36
-4463.35
-4445.47
-4426.81
-4407.46
-4387.52
-4367.09
-4346.29
-4325.19
-4303.9
-4282.51
-4261.11
-4239.76
-4218.53
-4197.48
-4176.67
-4156.12
-4135.86
-4115.93
-4096.31
-4077.03
-4058.13
-4039.54
-4021.23
-4003.19
-3985.4
-3967.83
-3950.45
-3933.24
-3916.17
-3899.22
-3882.37
-3865.59
-3848.86
-3832.18
-3815.53
-3798.9
-3782.28
-3765.68
-3749.1
-3732.54
-3716.06
-3699.6
-3683.17
-3666.77
-3650.41
-3634.11
-3617.86
-3601.68
-3585.57
-3569.52
-3553.55
-3537.65
-3521.83
-3506.08
-3490.41
-3474.8
-3459.27
-3443.81
-3428.41
-3413.09
-3397.89
-3382.76
-3367.69
-3352.69
-3337.77
-3322.93
-3308.17
-3293.49
-3278.79
-3264.17
-3249.62
-3235.15
-3220.74
-3206.41
-3192.14
-3177.94
-3163.81
-3149.74
-3135.74
-3121.79
-3107.95
-3094.17
-3080.44
-3066.77
-3053.16
-3039.61
-3026.13
-3012.71
-2999.26
-2985.88
-2972.54
-2959.26
-2946.04
-2932.88
-2919.77
-2906.71
-2893.71
-2880.76
-2867.87
-2855.03
-2842.29
-2829.6
-2816.97
-2804.4
-2791.89
-2779.44
-2767.07
-2754.77
-2742.45
-2730.2
-2718.01
-2705.89
-2693.83
-2681.83
-2669.89
-2658.01
-2646.19
-2634.43
-2622.72
-2611.07
-2599.5
-2587.99
-2576.52
-2565.11
-2553.74
-2542.43
-2531.18
-2519.98
-2508.77
-2497.6
-2486.49
-2475.42
-2464.4
-2453.43
-2442.5
-2431.63
-2420.8
-2410.02
-2399.28
-2388.6
-2377.99
-2367.44
-2356.92
-2346.46
-2336.04
-2325.68
-2315.38
-2305.14
-2294.88
-2284.67
-2274.52
-2264.41
-2254.35
-2244.35
-2234.38
-2224.47
-2214.6
-2204.78
-2195
-2185.26
-2175.6
-2165.98
-2156.39
-2146.85
-2137.36
-2127.91
-2118.51
-2109.16
-2099.8
-2090.48
-2081.2
-2071.97
-2062.78
-2053.63
-2044.53
-2035.47
-2026.45
-2017.47
-2008.53
-1999.63
-1990.8
-1982.01
-1973.25
-1964.53
-1955.85
-1947.21
-1938.61
-1930.06
-1921.49
-1912.96
-1904.47
-1896.01
-1887.59
-1879.21
-1870.86
-1862.55
-1854.28
-1846.03
-1837.83
-1829.65
-1821.55
-1813.47
-1805.43
-1797.42
-1789.45
-1781.52
-1773.64
-1765.8
-1757.95
-1750.14
-1742.37
-1734.64
-1726.94
-1719.29
-1711.67
-1704.09
-1696.55
-1689.04
-1681.56
-1674.13
-1666.75
-1659.4
-1652.08
-1644.79
-1637.54
-1630.32
-1623.14
-1616
-1608.85
-1601.73
-1594.64
-1587.58
-1580.56
-1573.56
-1566.6
-1559.67
-1552.77
-1545.89
-1539.05
-1532.23
-1525.47
-1518.73
-1512.03
-1505.34
-1498.7
-1492.08
-1485.49
-1478.95
-1472.39
-1465.86
-1459.36
-1452.89
-1446.45
-1440.04
-1433.67
-1427.31
-1420.99
-1414.7
-1408.44
-1402.2
-1396.02
-1389.86
-1383.73
-1377.62
-1371.55
-1365.51
-1359.51
-1353.54
-1347.56
-1341.62
-1335.7
-1329.81
-1323.96
-1318.13
-1312.34
-1306.57
-1300.83
-1295.11
-1289.42
-1283.76
-1278.14
-1272.55
-1266.97
-1261.42
-1255.9
-1250.4
-1244.92
-1239.48
-1234.02
-1228.58
-1223.17
-1217.77
-1212.4
-1207.05
-1201.72
-1196.41
-1191.12
-1185.85
-1180.6
-1175.37
-1170.18
-1165
-1159.85
-1154.71
-1149.6
-1144.5
-1139.44
-1134.4
-1129.35
-1124.32
-1119.31
-1114.33
-1109.36
-1104.42
-1099.5
-1094.6
-1089.73
-1084.87
-1080.03
-1075.21
-1070.43
-1065.66
-1060.91
-1056.18
-1051.47
-1046.78
-1042.11
-1037.46
-1032.8
-1028.16
-1023.54
-1018.93
-1014.34
-1009.77
-1005.21
-1000.67
-996.146
-991.636
-987.141
-982.661
-978.211
-973.774
-969.351
-964.943
-960.55
-956.175
-951.817
-947.478
-943.131
-938.799
-934.482
-930.182
-925.898
-921.631
-917.38
-913.145
-908.926
-904.724
-900.538
-896.368
-892.229
-888.106
-883.998
-879.909
-875.837
-871.786
-867.756
-863.747
-859.736
-855.742
-851.769
-847.815
-843.88
-839.964
-836.067
-832.188
-828.327
-824.484
-820.657
-816.847
-813.066
-809.3
-805.548
-801.813
-798.093
-794.39
-790.705
-787.038
-783.365
-779.707
-776.065
-772.438
-768.828
-765.233
-761.655
-758.093
-754.547
-751.019
-747.507
-744.012
-740.547
-737.098
-733.666
-730.253
-726.859
-723.486
-720.135
-716.805
-713.477
-710.167
-706.877
-703.606
-700.353
-697.118
-693.901
-690.699
-687.514
-684.344
-681.188
-678.045
-674.927
-671.819
-668.722
-665.638
-662.564
-659.504
-656.456
-653.421
-650.38
-647.35
-644.331
-641.324
-638.33
-635.348
-632.38
-629.424
-626.483
-623.556
-620.645
-617.75
-614.88
-612.026
-609.19
-606.373
-603.575
-600.798
-598.044
-595.312
-592.586
-589.88
-587.195
-584.531
-581.888
-579.266
-576.663
-574.079
-571.514
-568.965
-566.434
-563.919
-561.427
-558.948
-556.482
-554.029
-551.588
-549.16
-546.744
-544.34
-541.931
-539.531
-537.14
-534.758
-532.383
-530.016
-527.657
-525.305
-522.96
-520.623
-518.292
-515.969
-513.661
-511.361
-509.068
-506.785
-504.51
-502.246
-499.994
-497.753
-495.509
-493.276
-491.053
-488.842
-486.643
-484.455
-482.279
-480.113
-477.959
-475.815
-473.682
-471.56
-469.455
-467.36
-465.274
-463.198
-461.132
-459.076
-457.032
-454.998
-452.962
-450.936
-448.919
-446.912
-444.915
-442.928
-440.951
-438.984
-437.026
-435.079
-433.143
-431.218
-429.31
-427.413
-425.526
-423.65
-421.787
-419.936
-418.098
-416.273
-414.449
-412.636
-410.834
-409.044
-407.265
-405.496
-403.737
-401.988
-400.247
-398.515
-396.791
-395.075
-393.372
-391.675
-389.984
-388.3
-386.622
-384.952
-383.288
-381.633
-379.973
-378.319
-376.672
-375.032
-373.398
-371.772
-370.152
-368.539
-366.932
-365.333
-363.741
-362.156
-360.584
-359.018
-357.458
-355.906
-354.36
-352.822
-351.292
-349.769
-348.243
-346.724
-345.211
-343.703
-342.202
-340.706
-339.215
-337.73
-336.25
-334.776
-333.307
-331.844
-330.392
-328.946
-327.506
-326.073
-324.648
-323.231
-321.824
-320.426
-319.029
-317.641
-316.262
-314.893
-313.533
-312.184
-310.844
-309.513
-308.191
-306.878
-305.572
-304.275
-302.989
-301.71
-300.436
-299.168
-297.906
-296.648
-295.396
-294.149
-292.897
-291.648
-290.402
-289.159
-287.917
-286.677
-285.438
-284.201
-282.966
-281.732
-280.499
-279.269
-278.044
-276.821
-275.599
-274.381
-273.165
-271.953
-270.746
-269.543
-268.338
-267.137
-265.941
-264.751
-263.566
-262.387
-261.214
-260.048
-258.888
-257.734
-256.588
-255.448
-254.319
-253.197
-252.082
-250.975
-249.876
-248.785
-247.701
-246.626
-245.552
-244.485
-243.426
-242.373
-241.327
-240.287
-239.254
-238.225
-237.202
-236.183
-235.169
-234.159
-233.156
-232.156
-231.159
-230.165
-229.174
-228.185
-227.2
-226.218
-225.232
-224.249
-223.268
-222.291
-221.316
-220.345
-219.377
-218.413
-217.453
-216.497
-215.546
-214.599
-213.661
-212.728
-211.801
-210.88
-209.966
-209.059
-208.16
-207.268
-206.377
-205.493
-204.616
-203.745
-202.881
-202.024
-201.172
-200.326
-199.486
-198.65
-197.819
-196.993
-196.174
-195.359
-194.548
-193.742
-192.939
-192.141
-191.348
-190.56
-189.772
-188.989
-188.211
-187.438
-186.671
-185.909
-185.154
-184.404
-183.661
-182.923
-182.193
-181.468
-180.751
-180.041
-179.335
-178.634
-177.938
-177.247
-176.56
-175.877
-175.192
-174.509
-173.827
-173.146
-172.464
-171.783
-171.1
-170.415
-169.729
-169.04
-168.349
-167.656
-166.963
-166.267
-165.57
-164.871
-164.171
-163.472
-162.775
-162.079
-161.381
-160.686
-159.996
-159.31
-158.629
-157.954
-157.287
-156.626
-155.973
-155.327
-154.69
-154.061
-153.441
-152.83
-152.225
-151.628
-151.037
-150.452
-149.874
-149.3
-148.726
-148.155
-147.585
-147.017
-146.45
-145.883
-145.315
-144.746
-144.175
-143.602
-143.027
-142.45
-141.872
-141.292
-140.71
-140.126
-139.54
-138.955
-138.369
-137.784
-137.197
-136.611
-136.026
-135.444
-134.865
-134.289
-133.717
-133.149
-132.586
-132.028
-131.474
-130.924
-130.382
-129.844
-129.31
-128.781
-128.256
-127.734
-127.217
-126.704
-126.19
-125.679
-125.171
-124.665
-124.16
-123.657
-123.156
-122.656
-122.157
-121.66
-121.163
-120.668
-120.176
-119.686
-119.197
-118.71
-118.226
-117.744
-117.266
-116.792
-116.319
-115.85
-115.385
-114.925
-114.47
-114.02
-113.575
-113.135
-112.7
-112.27
-111.845
-111.425
-111.011
-110.6
-110.194
-109.791
-109.391
-108.995
-108.6
-108.208
-107.816
-107.425
-107.036
-106.647
-106.259
-105.871
-105.483
-105.095
-104.707
-104.319
-103.93
-103.541
-103.154
-102.767
-102.381
-101.995
-101.609
-101.225
-100.841
-100.46
-100.078
-99.697
-99.3187
-98.9424
-98.5682
-98.1964
-97.8272
-97.4603
-97.0955
-96.7332
-96.373
-96.0151
-95.6613
-95.3096
-94.9599
-94.6124
-94.2673
-93.9244
-93.5835
-93.245
-92.9065
-92.57
-92.2356
-91.9032
-91.573
-91.2448
-90.9182
-90.5936
-90.271
-89.9504
-89.632
-89.3156
-89.0022
-88.6906
-88.3806
-88.0723
-87.7658
-87.4609
-87.1573
-86.8552
-86.5523
-86.25
-85.9478
-85.6458
-85.3437
-85.041
-84.7376
-84.4331
-84.1268
-83.8188
-83.5093
-83.1975
-82.8845
-82.5688
-82.2501
-81.9287
-81.6043
-81.2774
-80.9486
-80.6176
-80.2822
-79.9448
-79.6059
-79.2659
-78.9255
-78.5849
-78.2446
-77.9053
-77.5675
-77.232
-76.8993
-76.5699
-76.2458
-75.9262
-75.6116
-75.3027
-74.9997
-74.7032
-74.4139
-74.1318
-73.8549
-73.5849
-73.3214
-73.0645
-72.8141
-72.5699
-72.3315
-72.0983
-71.8696
-71.6447
-71.423
-71.2037
-70.9871
-70.7713
-70.5556
-70.3397
-70.1231
-69.9053
-69.6853
-69.4632
-69.2369
-69.0077
-68.7753
-68.5397
-68.3015
-68.0603
-67.8169
-67.571
-67.3227
-67.0727
-66.8209
-66.5683
-66.3165
-66.0648
-65.8137
-65.5638
-65.3153
-65.0691
-64.8253
-64.5847
-64.3461
-64.1109
-63.8793
-63.6514
-63.4278
-63.2083
-62.9931
-62.7821
-62.5751
-62.3723
-62.1734
-61.9786
-61.7887
-61.6029
-61.4209
-61.2431
-61.0696
-60.9005
-60.736
-60.5761
-60.4192
-60.2668
-60.1192
-59.9762
-59.8375
-59.7034
-59.574
-59.4492
-59.3288
-59.2125
-59.1
-58.9911
-58.886
-58.7835
-58.6832
-58.5848
-58.4878
-58.3914
-58.2953
-58.1986
-58.0991
-57.9978
-57.8943
-57.788
-57.6787
-57.5658
-57.4488
-57.3277
-57.2019
-57.0717
-56.937
-56.7982
-56.6565
-56.5113
-56.3627
-56.2115
-56.0587
-55.9045
-55.7495
-55.5945
-55.4392
-55.2851
-55.133
-54.9836
-54.8374
-54.6946
-54.5554
-54.4202
-54.2893
-54.1628
-54.0407
-53.9229
-53.8092
-53.6993
-53.5935
-53.491
-53.3912
-53.2939
-53.199
-53.1058
-53.0128
-52.9206
-52.8286
-52.7367
-52.6448
-52.5525
-52.4591
-52.3649
-52.2694
-52.1729
-52.0756
-51.9771
-51.8786
-51.7791
-51.6786
-51.5773
-51.4751
-51.3724
-51.2693
-51.166
-51.0614
-50.9565
-50.8516
-50.7465
-50.6411
-50.5355
-50.4299
-50.3241
-50.2182
-50.1122
-50.0062
-49.9003
-49.7953
-49.6906
-49.5862
-49.4826
-49.3802
-49.2794
-49.181
-49.0849
-48.9905
-48.8989
-48.8102
-48.7252
-48.6439
-48.5667
-48.4945
-48.4266
-48.3627
-48.3031
-48.2478
-48.1964
-48.1487
-48.104
-48.0621
-48.0222
-47.9845
-47.9476
-47.9106
-47.8729
-47.8335
-47.7918
-47.7473
-47.699
-47.6463
-47.5885
-47.5252
-47.4558
-47.3799
-47.2972
-47.2071
-47.1097
-47.006
-46.895
-46.777
-46.6521
-46.5205
-46.3828
-46.2394
-46.0906
-45.9364
-45.7776
-45.6151
-45.449
-45.2795
-45.1072
-44.9326
-44.7558
-44.578
-44.3984
-44.2175
-44.0352
-43.8517
-43.6665
-43.4798
-43.2912
-43.1001
-42.9068
-42.7115
-42.5134
-42.3106
-42.1042
-41.8942
-41.68
-41.4611
-41.2374
-41.0091
-40.7756
-40.537
-40.2931
-40.0442
-39.79
-39.5309
-39.2668
-38.9982
-38.725
-38.4479
-38.1669
-37.8824
-37.5947
-37.3041
-37.0108
-36.7153
-36.4178
-36.1187
-35.8182
-35.5164
-35.2135
-34.9095
-34.6045
-34.2989
-33.9925
-33.6857
-33.3781
-33.0701
-32.7611
-32.4513
-32.1407
-31.8292
-31.517
-31.2032
-30.8885
-30.5729
-30.2563
-29.939
-29.621
-29.3021
-28.9825
-28.6624
-28.3417
-28.0208
-27.6995
-27.3781
-27.0565
-26.7349
-26.4132
-26.0917
-25.7701
-25.4486
-25.1271
-24.805
-24.4829
-24.1608
-23.8387
-23.5165
-23.194
-22.8708
-22.5471
-22.2232
-21.8987
-21.5743
-21.2495
-20.925
-20.6003
-20.2749
-19.9496
-19.6251
-19.3013
-18.9781
-18.6563
-18.3359
-18.0174
-17.7012
-17.3878
-17.0771
-16.7697
-16.4663
-16.1669
-15.8718
-15.5813
-15.2953
-15.0142
-14.7387
-14.4684
-14.2032
-13.9435
-13.6891
-13.4401
-13.1962
-12.9577
-12.7241
-12.4955
-12.2716
-12.0523
-11.8375
-11.627
-11.4203
-11.2176
-11.0186
-10.8231
-10.6308
-10.4416
-10.2554
-10.0718
-9.89033
-9.71108
-9.53347
-9.35753
-9.18306
-9.00979
-8.83701
-8.66482
-8.4925
-8.32033
-8.14851
-7.97641
-7.80376
-7.63042
-7.45634
-7.28148
-7.10551
-6.92868
-6.75112
-6.57283
-6.39377
-6.21431
-6.03421
-5.85427
-5.67502
-5.49658
-5.31848
-5.14196
-4.96743
-4.79527
-4.62609
-4.46012
-4.29754
-4.13906
-3.9848
-3.83531
-3.69084
-3.55167
-3.41805
-3.29002
-3.16746
-3.05056
-2.93924
-2.8334
-2.73286
-2.63739
-2.54634
-2.45962
-2.37639
-2.29665
-2.22018
-2.14642
-2.07493
-2.00534
-1.93705
-1.86991
-1.80359
-1.73789
-1.67267
-1.60773
-1.5431
-1.47874
-1.41472
-1.35118
-1.28828
-1.22619
-1.16471
-1.10465
-1.04615
-0.9897
-0.9355
-0.8839
-0.835407
-0.790102
-0.748037
-0.709586
-0.674781
-0.643656
-0.616035
-0.592018
-0.571775
-0.554861
-0.540754
-0.529341
-0.520021
-0.512591
-0.506111
-0.500552
-0.495748
-0.490966
-0.485398
-0.478863
-0.470873
-0.461064
-0.449326
-0.435034
-0.417688
-0.397349
-0.374068
-0.34736
-0.317012
-0.283261
-0.245934
-0.205335
-0.161858
-0.115445
-0.0661371
-0.0144116
0.039573
0.0952405
0.152261
0.210172
0.268341
0.326488
0.384415
0.441532
0.497377
0.551483
0.603362
0.652633
0.698585
0.741076
0.780173
0.815148
0.845725
0.871684
0.893062
0.90959
0.921188
0.927947
0.929832
0.927235
0.920693
0.910252
0.896321
0.879476
0.860028
0.838787
0.816828
0.794446
0.772582
0.751784
0.732262
0.71525
0.701424
0.69142
0.685997
0.685501
0.69031
0.700793
0.716993
0.73916
0.767585
0.801924
0.841647
0.886649
0.936757
0.991203
1.04953
1.11093
1.17432
1.23914
1.30453
1.36965
1.43367
1.49575
1.55527
1.61136
1.66332
1.71063
1.75287
1.7896
1.82056
1.84559
1.86508
1.87865
1.88649
1.88886
1.88586
1.87827
1.8664
1.85111
1.83321
1.81312
1.79154
1.76913
1.74671
1.7248
1.70397
1.6848
1.66787
1.65354
1.64242
1.63459
1.62992
1.62878
1.631
1.63676
1.64634
1.65913
1.67487
1.69323
1.71373
1.73595
1.75948
1.78389
1.80838
1.83279
1.85663
1.87946
1.90115
1.92099
1.93882
1.95414
1.96664
1.97619
1.98246
1.98563
1.9856
1.98251
1.97629
1.96733
1.95629
1.94302
1.92777
1.91081
1.89297
1.87431
1.85514
1.83582
1.81656
1.79794
1.7807
1.76473
1.75024
1.73748
1.7262
1.71693
1.70945
1.70412
1.70114
1.70016
1.70126
1.70415
1.70865
1.71455
1.72174
1.72986
1.7384
1.74739
1.75658
1.76558
1.77389
1.78157
1.78854
1.79436
1.79869
1.80151
1.80324
1.80309
1.80047
1.79572
1.78892
1.77987
1.76854
1.75491
1.73883
1.72044
1.69978
1.67694
1.65235
1.62589
1.5979
1.56837
1.53769
1.50592
1.47321
1.44004
1.40642
1.37307
1.34059
1.30907
1.27881
1.25028
1.22367
1.19958
1.1787
1.16099
1.14693
1.13653
1.13003
1.12754
1.1289
1.13442
1.14441
1.1583
1.17579
1.19674
1.22053
1.24707
1.27594
1.30658
1.33832
1.3706
1.40282
1.43434
1.46468
1.4932
1.51974
1.54333
1.56327
1.57929
1.59077
1.5977
1.59975
1.59685
1.58942
1.57683
1.55885
1.5359
1.50835
1.47617
1.43952
1.39877
1.3547
1.30717
1.25595
1.202
1.1456
1.08716
1.02722
0.965777
0.903367
0.840095
0.776408
0.712461
0.648369
0.584568
0.520819
0.457846
0.396045
0.33537
0.275788
0.217863
0.162048
0.10839
0.0570429
0.00832831
-0.0369626
-0.0792987
-0.11876
-0.155055
-0.188402
-0.218569
-0.245653
-0.26962
-0.290822
-0.309375
-0.325329
-0.339262
-0.351858
-0.363352
-0.374099
-0.384837
-0.395725
-0.407751
-0.421299
-0.437018
-0.455577
-0.477378
-0.502986
-0.532516
-0.566032
-0.603941
-0.646604
-0.69365
-0.744403
-0.799159
-0.857838
-0.91979
-0.984232
-1.05075
-1.11918
-1.18829
-1.25695
-1.32477
-1.39136
-1.4557
-1.51692
-1.57447
-1.62748
-1.67577
-1.71894
-1.75667
-1.78886
-1.81536
-1.83621
-1.85161
-1.86185
-1.86732
-1.86879
-1.86659
-1.86163
-1.85437
-1.84521
-1.83525
-1.82502
-1.81539
-1.8074
-1.80137
-1.79764
-1.79699
-1.79961
-1.80601
-1.81654
-1.83133
-1.85064
-1.87429
-1.90233
-1.93436
-1.96964
-2.00832
-2.05053
-2.09546
-2.1426
-2.19159
-2.24164
-2.29266
-2.34436
-2.39627
-2.44808
-2.49955
-2.55047
-2.60058
-2.64954
-2.69738
-2.74423
-2.78994
-2.83428
-2.87761
-2.91979
-2.96111
-3.00165
-3.0416
-3.08177
-3.12179
-3.16148
-3.20133
-3.2416
-3.28242
-3.32388
-3.36611
-3.40949
-3.45384
-3.49859
-3.54436
-3.59111
-3.63888
-3.68797
-3.73817
-3.78951
-3.84188
-3.89496
-3.94899
-4.00376
-4.05932
-4.1153
-4.17194
-4.22955
-4.28785
-4.34653
-4.40574
-4.46525
-4.52527
-4.58582
-4.64672
-4.70813
-4.76993
-4.83203
-4.89441
-4.95706
-5.01986
-5.08231
-5.14481
-5.20722
-5.26967
-5.33229
-5.39491
-5.45737
-5.51993
-5.5829
-5.64618
-5.70998
-5.77448
-5.83958
-5.90586
-5.97376
-6.04347
-6.11503
-6.18901
-6.26585
-6.34589
-6.42905
-6.51607
-6.60782
-6.70399
-6.80453
-6.90995
-7.02039
-7.1358
-7.2555
-7.38007
-7.50982
-7.64399
-7.78222
-7.92422
-8.06926
-8.21716
-8.36763
-8.51992
-8.67325
-8.82725
-8.98139
-9.13502
-9.2879
-9.43919
-9.58823
-9.73492
-9.87897
-10.0201
-10.1579
-10.2925
-10.424
-10.5524
-10.6777
-10.8004
-10.9205
-11.0385
-11.1549
-11.27
-11.3846
-11.4989
-11.6137
-11.7295
-11.8468
-11.966
-12.0874
-12.2115
-12.339
-12.47
-12.6046
-12.7431
-12.8855
-13.032
-13.1829
-13.3377
-13.4962
-13.658
-13.8226
-13.9899
-14.1592
-14.3302
-14.5026
-14.6755
-14.8487
-15.0213
-15.1933
-15.3638
-15.5322
-15.6982
-15.8617
-16.022
-16.1786
-16.3314
-16.4804
-16.6254
-16.7661
-16.9028
-17.0358
-17.165
-17.2905
-17.4127
-17.5319
-17.6485
-17.7631
-17.8758
-17.9873
-18.0979
-18.2079
-18.3178
-18.4282
-18.5393
-18.651
-18.764
-18.8788
-18.9951
-19.1132
-19.2331
-19.3546
-19.4775
-19.6022
-19.7279
-19.8542
-19.9809
-20.108
-20.235
-20.3616
-20.4873
-20.6114
-20.7339
-20.8546
-20.9731
-21.0894
-21.2031
-21.3138
-21.4217
-21.5269
-21.6292
-21.729
-21.826
-21.9208
-22.0131
-22.1035
-22.1919
-22.2782
-22.3627
-22.4456
-22.5267
-22.606
-22.6835
-22.7593
-22.833
-22.9039
-22.9718
-23.0367
-23.098
-23.1554
-23.2083
-23.2568
-23.2999
-23.3374
-23.3686
-23.3935
-23.4117
-23.4235
-23.4283
-23.4262
-23.417
-23.401
-23.3783
-23.3491
-23.3137
-23.2723
-23.2253
-23.1736
-23.1174
-23.057
-22.9929
-22.9255
-22.8551
-22.7823
-22.707
-22.6296
-22.5501
-22.4686
-22.385
-22.2998
-22.2125
-22.1229
-22.0308
-21.9361
-21.8384
-21.7375
-21.6329
-21.5247
-21.4123
-21.2959
-21.1748
-21.0489
-20.9183
-20.7828
-20.6427
-20.498
-20.3487
-20.1948
-20.037
-19.8758
-19.7115
-19.5449
-19.3761
-19.2055
-19.0335
-18.8609
-18.6879
-18.5153
-18.3433
-18.1722
-18.0024
-17.834
-17.6674
-17.503
-17.3404
-17.18
-17.0214
-16.8652
-16.7107
-16.5577
-16.406
-16.2556
-16.106
-15.9571
-15.8086
-15.6599
-15.511
-15.3617
-15.2118
-15.0611
-14.9094
-14.7568
-14.6032
-14.4492
-14.2942
-14.1384
-13.9818
-13.8243
-13.6664
-13.5084
-13.3503
-13.1924
-13.0347
-12.8778
-12.7216
-12.5662
-12.4118
-12.2587
-12.1068
-11.9566
-11.8077
-11.6599
-11.5136
-11.3688
-11.2252
-11.0829
-10.9417
-10.8017
-10.6625
-10.5235
-10.3851
-10.2475
-10.1103
-9.97294
-9.83566
-9.69848
-9.56124
-9.42388
-9.28632
-9.14867
-9.01089
-8.87272
-8.73446
-8.59612
-8.45786
-8.32027
-8.183
-8.04608
-7.90964
-7.77372
-7.63856
-7.50395
-7.37024
-7.23752
-7.10594
-6.97557
-6.84634
-6.71826
-6.59129
-6.46551
-6.34084
-6.21721
-6.09459
-5.97285
-5.85198
-5.73188
-5.61248
-5.49341
-5.37484
-5.2566
-5.13869
-5.02101
-4.90346
-4.78612
-4.66866
-4.55106
-4.43316
-4.31464
-4.19559
-4.07574
-3.95513
-3.8336
-3.71106
-3.5873
-3.46226
-3.33575
-3.2076
-3.07745
-2.94543
-2.81162
-2.67584
-2.53847
-2.39906
-2.2573
-2.1135
-1.9678
-1.82027
-1.67132
-1.52089
-1.36883
-1.21575
-1.06194
-0.907758
-0.75333
-0.59935
-0.446394
-0.294622
-0.14434
0.00368993
0.148934
0.291141
0.42994
0.564862
0.695367
0.821335
0.942421
1.05844
1.16943
1.27507
1.37544
1.47044
1.56019
1.64487
1.72453
1.79971
1.87101
1.93857
2.00265
2.06401
2.1231
2.18063
2.23748
2.29399
2.35124
2.40929
2.46815
2.52882
2.59194
2.6577
2.7267
2.79888
2.8742
2.95301
3.03515
3.12075
3.20973
3.30199
3.39775
3.4963
3.59699
3.69985
3.80501
3.91166
4.01927
4.12777
4.23709
4.34675
4.4564
4.5658
4.67514
4.78406
4.89225
4.99979
5.10673
5.21299
5.31884
5.42408
5.52872
5.63284
5.7364
5.83954
5.94207
6.04426
6.14658
6.24851
6.35
6.45103
6.55142
6.65106
6.75
6.84774
6.94386
7.03826
7.13097
7.22146
7.30966
7.39505
7.47712
7.55585
7.63111
7.70249
7.76979
7.83281
7.89139
7.94544
7.99467
8.03935
8.07946
8.11514
8.14657
8.17392
8.19777
8.21817
8.23529
8.24975
8.26212
8.27262
8.28168
8.28978
8.29749
8.30512
8.31307
8.32173
8.33188
8.34337
8.35602
8.37052
8.38715
8.40575
8.42639
8.44907
8.47372
8.50017
8.52849
8.55818
8.589
8.62078
8.65307
8.68586
8.71923
8.7526
8.78551
8.81801
8.85039
8.88221
8.91252
8.94216
8.97177
9.00079
9.0291
9.05702
9.08515
9.11311
9.14087
9.16877
9.19704
9.22555
9.25436
9.28345
9.31269
9.34215
9.37197
9.40178
9.43103
9.45977
9.48828
9.51569
9.54183
9.56627
9.58875
9.60893
9.62631
9.64087
9.65295
9.66193
9.66712
9.66934
9.66866
9.66524
9.65969
9.65207
9.64302
9.63278
9.6221
9.61141
9.60096
9.59174
9.58452
9.57979
9.5779
9.57952
9.58535
9.59552
9.61048
9.63014
9.65444
9.68324
9.71636
9.75352
9.79432
9.83813
9.8843
9.93213
9.98056
10.0291
10.0772
10.1237
10.1679
10.2089
10.2466
10.2796
10.3074
10.3296
10.346
10.3564
10.3607
10.3587
10.35
10.3353
10.3153
10.2898
10.2594
10.2247
10.1858
10.1438
10.0995
10.0533
10.0059
9.95757
9.90901
9.86065
9.81295
9.76625
9.72125
9.67775
9.63607
9.596
9.55717
9.5199
9.48427
9.44973
9.41602
9.38286
9.3498
9.31638
9.28243
9.24719
9.20988
9.17044
9.12848
9.0836
9.03522
8.98324
8.92803
8.86882
8.80518
8.73724
8.66551
8.58947
8.50921
8.42483
8.33623
8.24382
8.14808
8.04908
7.94756
7.84336
7.73641
7.62732
7.51641
7.40401
7.29024
7.17565
7.0611
6.94637
6.83149
6.71694
6.6033
6.49056
6.37897
6.26868
6.15998
6.05312
5.94817
5.8453
5.7448
5.64652
5.55049
5.45683
5.36551
5.27646
5.1898
5.10507
5.02166
4.93966
4.85901
4.77912
4.69964
4.62015
4.5405
4.45999
4.37799
4.2943
4.20924
4.12191
4.03153
3.93833
3.84225
3.74299
3.64025
3.53425
3.42513
3.31305
3.19835
3.08129
2.96243
2.84198
2.72059
2.59851
2.47602
2.35392
2.23266
2.11265
1.99398
1.87731
1.76321
1.65171
1.54289
1.4369
1.33395
1.23369
1.13621
1.04104
0.94746
0.855434
0.764506
0.674244
0.583696
0.492823
0.401356
0.308569
0.214057
0.117417
0.0182133
-0.0837923
-0.188552
-0.296357
-0.407562
-0.521834
-0.639028
-0.758931
-0.881018
-1.00516
-1.13088
-1.25791
-1.38629
-1.51508
-1.64341
-1.77139
-1.89862
-2.02473
-2.14965
-2.27291
-2.39481
-2.5147
-2.632
-2.74703
-2.8601
-2.97099
-3.07928
-3.18553
-3.28988
-3.39247
-3.49397
-3.5939
-3.69187
-3.7884
-3.88353
-3.97728
-4.06982
-4.16087
-4.25037
-4.33831
-4.42462
-4.50918
-4.59221
-4.67336
-4.75237
-4.82941
-4.90448
-4.97755
-5.04866
-5.11787
-5.18561
-5.25174
-5.31627
-5.37961
-5.44202
-5.50372
-5.56473
-5.62551
-5.68652
-5.74783
-5.80985
-5.87251
-5.93598
-6.00031
-6.06564
-6.13196
-6.19899
-6.26679
-6.33566
-6.40493
-6.47447
-6.54399
-6.61281
-6.68104
-6.74861
-6.81499
-6.87998
-6.94342
-7.00506
-7.06484
-7.12313
-7.17947
-7.23377
-7.28634
-7.33745
-7.3873
-7.43622
-7.48446
-7.53251
-7.58049
-7.6283
-7.67669
-7.72604
-7.77658
-7.82891
-7.88266
-7.93792
-7.99466
-8.05273
-8.11202
-8.17247
-8.2336
-8.29495
-8.35632
-8.41721
-8.47704
-8.53558
-8.59208
-8.64622
-8.69731
-8.74482
-8.78858
-8.82837
-8.86392
-8.89512
-8.92208
-8.9449
-8.96376
-8.97888
-8.99068
-8.99955
-9.00604
-9.01036
-9.01346
-9.01626
-9.01913
-9.0229
-9.02786
-9.03472
-9.04378
-9.0555
-9.07004
-9.08724
-9.10758
-9.13138
-9.15804
-9.18708
-9.2184
-9.25153
-9.28604
-9.32124
-9.35651
-9.3916
-9.42559
-9.45785
-9.48778
-9.51481
-9.53848
-9.55827
-9.57392
-9.58509
-9.59187
-9.59437
-9.59261
-9.58701
-9.57779
-9.56545
-9.55053
-9.53352
-9.51503
-9.49573
-9.47639
-9.45777
-9.44044
-9.42479
-9.41158
-9.40157
-9.39497
-9.39208
-9.39322
-9.39884
-9.40863
-9.42271
-9.44086
-9.46281
-9.48835
-9.51715
-9.54876
-9.5829
-9.61888
-9.6562
-9.69446
-9.73344
-9.77236
-9.81062
-9.84807
-9.88436
-9.91923
-9.9522
-9.98337
-10.0126
-10.0399
-10.0658
-10.09
-10.1129
-10.1344
-10.1544
-10.1734
-10.1923
-10.2107
-10.2291
-10.2477
-10.2663
-10.2852
-10.3048
-10.325
-10.3458
-10.367
-10.3881
-10.4092
-10.4304
-10.451
-10.471
-10.4898
-10.5073
-10.5229
-10.5361
-10.5467
-10.5545
-10.5592
-10.5609
-10.5592
-10.5533
-10.5438
-10.5308
-10.5141
-10.494
-10.4708
-10.4448
-10.4163
-10.3862
-10.3545
-10.3213
-10.2874
-10.2532
-10.219
-10.1852
-10.1522
-10.1204
-10.0901
-10.0614
-10.0345
-10.0099
-9.98703
-9.96579
-9.94602
-9.92744
-9.90978
-9.89286
-9.87606
-9.85898
-9.84115
-9.82252
-9.802
-9.77889
-9.75277
-9.72299
-9.68923
-9.65112
-9.60808
-9.56011
-9.50656
-9.44687
-9.38092
-9.30894
-9.23032
-9.14517
-9.05325
-8.95443
-8.84874
-8.73625
-8.61707
-8.49149
-8.35934
-8.22088
-8.07612
-7.92526
-7.76831
-7.60579
-7.43754
-7.2636
-7.08428
-6.89987
-6.71052
-6.51666
-6.31837
-6.11582
-5.90927
-5.69923
-5.48588
-5.26973
-5.05085
-4.82978
-4.60664
-4.38187
-4.1557
-3.92837
-3.70037
-3.47182
-3.24308
-3.01455
-2.78634
-2.55891
-2.33211
-2.10597
-1.8806
-1.65593
-1.43195
-1.20879
-0.986227
-0.763866
-0.541763
-0.319985
-0.0981732
0.123961
0.346451
0.568962
0.792243
1.01612
1.24102
1.4674
1.69495
1.92372
2.1538
2.385
2.61743
2.85112
3.08599
3.3222
3.55931
3.79696
4.03525
4.27406
4.51315
4.75226
4.99135
5.23012
5.46842
5.70634
5.94324
6.17853
6.41231
6.64434
6.87442
7.10239
7.32793
7.55083
7.77082
7.98797
8.20183
8.41222
8.61898
8.82244
9.022
9.21726
9.4085
9.59569
9.77889
9.95847
10.1341
10.306
10.4742
10.6388
10.8
10.9581
11.1134
11.2658
11.4158
11.5641
11.7106
11.8556
11.9994
12.1421
12.2841
12.4261
12.5678
12.7095
12.8512
12.9929
13.1349
13.2777
13.4208
13.5642
13.7077
13.8506
13.993
14.1351
14.2761
14.4157
14.5535
14.6892
14.8225
14.9531
15.0804
15.2043
15.3241
15.4398
15.551
15.6575
15.7589
15.855
15.9461
16.0328
16.1143
16.1911
16.2632
16.3311
16.3948
16.4546
16.5109
16.5641
16.6147
16.6631
16.7099
16.7559
16.8012
16.8457
16.8902
16.9354
16.9814
17.0285
17.077
17.1274
17.1794
17.2331
17.2885
17.3458
17.4048
17.4653
17.5271
17.5902
17.654
17.7182
17.7824
17.8466
17.9099
17.972
18.0323
18.0908
18.1467
18.1995
18.2491
18.2951
18.3373
18.3758
18.4103
18.441
18.4677
18.49
18.5087
18.5244
18.5369
18.5467
18.5542
18.5601
18.5647
18.5684
18.5716
18.5749
18.5788
18.5837
18.5899
18.5978
18.6075
18.6194
18.6332
18.6488
18.6658
18.6842
18.7035
18.7233
18.7432
18.7627
18.781
18.7973
18.8111
18.8215
18.8278
18.8296
18.826
18.8167
18.8009
18.7787
18.7495
18.7133
18.6699
18.6191
18.5611
18.4962
18.4249
18.3477
18.265
18.1771
18.085
17.9898
17.8921
17.7928
17.6922
17.5917
17.4915
17.3926
17.2955
17.2004
17.1081
17.0192
16.9339
16.8522
16.7744
16.7003
16.63
16.5628
16.4989
16.4385
16.3804
16.3243
16.2695
16.2152
16.1612
16.1073
16.0525
15.9965
15.9386
15.8783
15.8154
15.7494
15.6802
15.6073
15.5308
15.4514
15.3685
15.2815
15.1913
15.0986
15.0034
14.906
14.8069
14.7069
14.6063
14.5057
14.4058
14.3071
14.2102
14.1153
14.0231
13.9345
13.8495
13.7681
13.6909
13.6181
13.5498
13.4862
13.4271
13.3725
13.3221
13.2756
13.2327
13.193
13.1561
13.1213
13.0885
13.0573
13.0269
12.9966
12.9663
12.9353
12.9033
12.8697
12.8343
12.7971
12.7576
12.7157
12.6711
12.6239
12.5741
12.5217
12.4667
12.4091
12.3491
12.2866
12.222
12.1555
12.0871
12.0169
11.9451
11.8718
11.7971
11.7213
11.6443
11.5659
11.4864
11.4063
11.3253
11.2431
11.1598
11.0754
10.99
10.9035
10.8163
10.7291
10.6415
10.5536
10.4656
10.3776
10.2899
10.2024
10.1157
10.0304
9.94628
9.86322
9.78161
9.70121
9.62265
9.54632
9.47188
9.39912
9.32825
9.25939
9.19214
9.12634
9.0618
8.99882
8.9367
8.87491
8.81345
8.75194
8.68999
8.6273
8.5636
8.49887
8.43264
8.36491
8.29522
8.22308
8.14875
8.07236
7.9936
7.91222
7.82854
7.74287
7.65513
7.56516
7.47331
7.37974
7.28472
7.18873
7.09185
6.99432
6.89643
6.7986
6.70083
6.60336
6.50637
6.40997
6.31439
6.21974
6.1261
6.03324
5.94138
5.85069
5.76093
5.67196
5.58363
5.49573
5.40812
5.32081
5.23339
5.14589
5.05793
4.96928
4.87979
4.78927
4.69753
4.60412
4.50926
4.41314
4.31553
4.2167
4.11649
4.01468
3.91163
3.80727
3.70199
3.59617
3.48982
3.38297
3.27618
3.16994
3.06436
2.95944
2.85566
2.75372
2.6534
2.55482
2.45819
2.36356
2.27101
2.1803
2.09159
2.00469
1.91935
1.83517
1.75204
1.66951
1.58716
1.50477
1.4217
1.33741
1.25145
1.16352
1.07292
0.979184
0.881965
0.780637
0.675198
0.565637
0.451615
0.333163
0.210379
0.0831679
-0.0479792
-0.182694
-0.3206
-0.461204
-0.603835
-0.747547
-0.891704
-1.0356
-1.17842
-1.31959
-1.45802
-1.59311
-1.72377
-1.84862
-1.96759
-2.08063
-2.18673
-2.28526
-2.37617
-2.45895
-2.53365
-2.60075
-2.66003
-2.71133
-2.75544
-2.79314
-2.82475
-2.85116
-2.8728
-2.89022
-2.90449
-2.91617
-2.92628
-2.93641
-2.94658
-2.9573
-2.9695
-2.9838
-3.00072
-3.02076
-3.04431
-3.07128
-3.10212
-3.13722
-3.17632
-3.2191
-3.2656
-3.31563
-3.3689
-3.42539
-3.48455
-3.54586
-3.60919
-3.67421
-3.74057
-3.80796
-3.87608
-3.94494
-4.01412
-4.08365
-4.1531
-4.22209
-4.29081
-4.35923
-4.42723
-4.49483
-4.56195
-4.62856
-4.69463
-4.76036
-4.8255
-4.88986
-4.95357
-5.01683
-5.07935
-5.14106
-5.20188
-5.26173
-5.32055
-5.37853
-5.43544
-5.4912
-5.54581
-5.59931
-5.65167
-5.70299
-5.75328
-5.80263
-5.85112
-5.89864
-5.94557
-5.99233
-6.03879
-6.08482
-6.13073
-6.17664
-6.22262
-6.26876
-6.3151
-6.36169
-6.4086
-6.45575
-6.50311
-6.55062
-6.59811
-6.64525
-6.69203
-6.73855
-6.78439
-6.82892
-6.87235
-6.915
-6.95617
-6.99551
-7.03309
-7.0688
-7.10253
-7.13445
-7.16435
-7.1922
-7.21805
-7.24195
-7.26401
-7.28465
-7.30377
-7.32158
-7.33815
-7.35349
-7.36807
-7.38237
-7.39637
-7.41027
-7.42427
-7.43816
-7.45254
-7.46785
-7.48406
-7.50129
-7.51975
-7.53931
-7.56034
-7.58364
-7.6087
-7.63544
-7.6642
-7.69518
-7.72845
-7.76406
-7.80197
-7.84223
-7.8848
-7.92987
-7.97716
-8.02643
-8.07767
-8.13063
-8.18502
-8.2408
-8.29744
-8.35439
-8.41151
-8.46804
-8.52382
-8.5787
-8.63199
-8.68333
-8.73226
-8.77869
-8.82206
-8.86191
-8.89823
-8.93104
-8.96001
-8.98519
-9.00652
-9.02408
-9.03806
-9.04863
-9.05609
-9.06101
-9.06353
-9.06374
-9.06232
-9.05968
-9.05618
-9.05226
-9.04824
-9.04399
-9.04027
-9.03784
-9.03641
-9.03612
-9.03714
-9.0396
-9.04347
-9.04871
-9.05528
-9.06304
-9.07191
-9.08176
-9.09247
-9.104
-9.11593
-9.12784
-9.13978
-9.15158
-9.16304
-9.17401
-9.18434
-9.19368
-9.2022
-9.20979
-9.21646
-9.22246
-9.22748
-9.23137
-9.23442
-9.23713
-9.23918
-9.24044
-9.24126
-9.2417
-9.24187
-9.24213
-9.24224
-9.24232
-9.2424
-9.24258
-9.24292
-9.24323
-9.24374
-9.24441
-9.24528
-9.24635
-9.24759
-9.24898
-9.25053
-9.2526
-9.25483
-9.25681
-9.25898
-9.26161
-9.26457
-9.26793
-9.27175
-9.27635
-9.28151
-9.28734
-9.29386
-9.30075
-9.30851
-9.31734
-9.32705
-9.33723
-9.34827
-9.3604
-9.37334
-9.38716
-9.40162
-9.41648
-9.43185
-9.4478
-9.46408
-9.4806
-9.49724
-9.51394
-9.53058
-9.54712
-9.56346
-9.57955
-9.59519
-9.61035
-9.62507
-9.63965
-9.65378
-9.66718
-9.68003
-9.69201
-9.7035
-9.71454
-9.72507
-9.73526
-9.74497
-9.75399
-9.76252
-9.77059
-9.77822
-9.78591
-9.7932
-9.79997
-9.80643
-9.81255
-9.8184
-9.82404
-9.82945
-9.83464
-9.83962
-9.84475
-9.84967
-9.85417
-9.85837
-9.86194
-9.8652
-9.86832
-9.87101
-9.87345
-9.87534
-9.87644
-9.87699
-9.87748
-9.8774
-9.8769
-9.87579
-9.87397
-9.87167
-9.86924
-9.86655
-9.86354
-9.86041
-9.85756
-9.8548
-9.8522
-9.84996
-9.84781
-9.8464
-9.84605
-9.84666
-9.84877
-9.85203
-9.85625
-9.86164
-9.86859
-9.87666
-9.88581
-9.89584
-9.90656
-9.91774
-9.92963
-9.94131
-9.95243
-9.96249
-9.97049
-9.9764
-9.98015
-9.98067
-9.97709
-9.96908
-9.95645
-9.93825
-9.91419
-9.88349
-9.84542
-9.79989
-9.7467
-9.68561
-9.61674
-9.5399
-9.45568
-9.36373
-9.26437
-9.15789
-9.04492
-8.92571
-8.8008
-8.67077
-8.53619
-8.39767
-8.25599
-8.11162
-7.96515
-7.8171
-7.66808
-7.51832
-7.36797
-7.21747
-7.06719
-6.91703
-6.76734
-6.61792
-6.46867
-6.31935
-6.1702
-6.02052
-5.87005
-5.71847
-5.56541
-5.41051
-5.25358
-5.09419
-4.93182
-4.76642
-4.59805
-4.42607
-4.25035
-4.07068
-3.8869
-3.69899
-3.50646
-3.30976
-3.10944
-2.90512
-2.69704
-2.48517
-2.2695
-2.05046
-1.82914
-1.60484
-1.37728
-1.14727
-0.915296
-0.68129
-0.445574
-0.208227
0.0306922
0.270808
0.512027
0.754182
0.99704
1.24046
1.48427
1.72833
1.97255
2.21669
2.46035
2.70364
2.94646
3.18857
3.43003
3.67033
3.90899
4.14602
4.38133
4.61465
4.84591
5.07482
5.30094
5.52429
5.74493
5.9626
6.17763
6.38949
6.59775
6.80276
7.00451
7.20302
7.39863
7.59107
7.78071
7.96738
8.15096
8.33177
8.50947
8.68442
8.85682
9.0266
9.19386
9.35861
9.5212
9.68116
9.83845
9.99308
10.1453
10.2946
10.4407
10.5837
10.724
10.861
10.9945
11.1245
11.2504
11.3725
11.4909
11.6054
11.7159
11.8223
11.9243
12.0222
12.1164
12.2066
12.2933
12.3761
12.4552
12.5307
12.6028
12.6716
12.7374
12.8005
12.8614
12.9199
12.9764
13.031
13.0844
13.1363
13.1868
13.2364
13.2853
13.3334
13.3807
13.4275
13.4742
13.5205
13.5664
13.612
13.6578
13.7034
13.7488
13.7938
13.8387
13.8832
13.9274
13.9712
14.0146
14.0574
14.0999
14.1415
14.1823
14.222
14.2601
14.2969
14.3328
14.3671
14.3997
14.4304
14.4588
14.485
14.509
14.5304
14.5497
14.5664
14.5803
14.5916
14.5998
14.6052
14.6087
14.6094
14.6064
14.6006
14.5925
14.5818
14.5686
14.553
14.5349
14.5145
14.4922
14.4677
14.4411
14.4125
14.3822
14.35
14.3166
14.2812
14.2442
14.2054
14.165
14.1229
14.0789
14.0332
13.9857
13.9365
13.8857
13.8333
13.7796
13.7243
13.6674
13.6091
13.5502
13.4901
13.4289
13.3669
13.3045
13.2419
13.1797
13.1178
13.0559
12.9949
12.9352
12.8767
12.8203
12.7656
12.7126
12.6616
12.6126
12.5658
12.5212
12.4786
12.4376
12.3982
12.3605
12.3239
12.288
12.2526
12.2177
12.1826
12.1468
12.1101
12.0723
12.033
11.9924
11.9497
11.9044
11.8567
11.8063
11.7535
11.6987
11.6415
11.5823
11.521
11.4575
11.3925
11.3261
11.2588
11.1911
11.1233
11.0563
10.9898
10.924
10.8593
10.796
10.7343
10.6742
10.6157
10.559
10.5041
10.4505
10.3983
10.3478
10.2983
10.2491
10.2002
10.1515
10.1025
10.0526
10.0016
9.94881
9.89439
9.83824
9.78008
9.72028
9.65832
9.59391
9.52752
9.45916
9.38922
9.31799
9.24586
9.17368
9.10149
9.02934
8.95822
8.88885
8.82148
8.75669
8.69492
8.6364
8.58166
8.53082
8.48421
8.4424
8.40498
8.37165
8.34262
8.3173
8.29576
8.27815
8.26372
8.25194
8.24243
8.23477
8.22843
8.22293
8.21778
8.21259
8.20689
8.20039
8.1927
8.18341
8.17239
8.15891
8.14333
8.12578
8.1061
8.08466
8.06122
8.03561
8.00834
7.97975
7.94994
7.91917
7.88767
7.85545
7.82295
7.79068
7.75862
7.72657
7.69506
7.66458
7.63489
7.60632
7.57876
7.55171
7.52572
7.50112
7.4776
7.4553
7.43392
7.41307
7.39293
7.37347
7.35457
7.33617
7.31815
7.30045
7.28295
7.26566
7.24837
7.23092
7.21342
7.19578
7.17797
7.15994
7.14167
7.12359
7.10514
7.0862
7.06681
7.04661
7.02581
7.00444
6.9825
6.96013
6.93704
6.91316
6.88845
6.8627
6.83601
6.80866
6.78025
6.75119
6.72102
6.6897
6.65724
6.62339
6.58836
6.55189
6.51428
6.47597
6.43653
6.39575
6.35385
6.31085
6.26684
6.22204
6.17618
6.1291
6.08085
6.03172
5.98134
5.9292
5.8758
5.82104
5.76486
5.70765
5.64882
5.58842
5.52608
5.46113
5.39392
5.32459
5.25273
5.17816
5.10071
5.02042
4.93687
4.84958
4.75871
4.66448
4.56655
4.46438
4.35842
4.2491
4.13604
4.01932
3.89911
3.77533
3.6485
3.51881
3.38655
3.25213
3.11597
2.97847
2.84008
2.70124
2.56243
2.42384
2.28629
2.15047
2.01654
1.88493
1.75598
1.62995
1.50719
1.3879
1.27228
1.16059
1.05264
0.948396
0.847786
0.75069
0.656907
0.565957
0.477787
0.392344
0.309164
0.227704
0.148006
0.0700425
-0.00663405
-0.0821626
-0.156667
-0.230435
-0.303134
-0.374258
-0.444109
-0.512938
-0.579956
-0.644619
-0.706753
-0.76566
-0.8211
-0.872792
-0.920044
-0.962504
-0.99977
-1.03152
-1.05743
-1.07729
-1.09093
-1.09831
-1.09951
-1.09451
-1.08379
-1.06821
-1.0477
-1.02214
-0.992861
-0.960776
-0.926334
-0.890111
-0.853144
-0.816695
-0.781179
-0.747592
-0.716356
-0.687957
-0.663194
-0.64233
-0.625955
-0.614616
-0.608342
-0.607283
-0.6114
-0.620592
-0.634661
-0.653444
-0.676602
-0.704207
-0.735366
-0.769441
-0.806185
-0.845258
-0.886024
-0.927825
-0.970456
-1.01387
-1.05753
-1.10125
-1.14482
-1.18808
-1.23101
-1.27373
-1.31638
-1.35975
-1.40335
-1.44773
-1.4929
-1.53864
-1.5857
-1.63441
-1.68503
-1.73839
-1.7941
-1.85245
-1.9136
-1.97763
-2.04451
-2.11426
-2.18682
-2.26205
-2.33984
-2.42049
-2.50329
-2.5881
-2.67442
-2.76217
-2.85071
-2.93945
-3.02819
-3.11683
-3.20472
-3.29111
-3.37598
-3.45908
-3.53968
-3.61782
-3.69259
-3.76333
-3.82978
-3.89165
-3.9483
-3.99945
-4.0444
-4.08237
-4.11315
-4.13675
-4.15226
-4.15947
-4.15771
-4.14679
-4.12609
-4.0952
-4.05394
-4.00237
-3.94012
-3.86729
-3.78365
-3.68949
-3.58466
-3.46953
-3.34419
-3.20898
-3.06435
-2.91048
-2.74818
-2.57843
-2.40145
-2.21792
-2.02848
-1.83397
-1.63476
-1.43189
-1.22567
-1.01658
-0.805131
-0.591967
-0.377309
-0.161481
0.0553104
0.273018
0.491553
0.710901
0.931075
1.15184
1.37389
1.59753
1.82302
2.05064
2.28074
2.51323
2.74886
2.98811
3.23121
3.47789
3.72873
3.98418
4.24406
4.5079
4.77612
5.04844
5.32484
5.60535
5.88945
6.17636
6.46607
6.75819
7.05218
7.34771
7.64401
7.94018
8.23609
8.53133
8.82522
9.11685
9.40611
9.69298
9.97654
10.2559
10.5312
10.802
11.0682
11.3293
11.5852
11.8358
12.0809
12.3204
12.5541
12.7822
13.0047
13.2213
13.4325
13.6391
13.8407
14.0375
14.2298
14.418
14.6023
14.7834
14.9612
15.1362
15.3089
15.4792
15.6477
15.8149
15.981
16.1463
16.3108
16.4741
16.637
16.7999
16.9625
17.1246
17.2862
17.4476
17.6083
17.7678
17.9262
18.0834
18.2389
18.3924
18.5436
18.693
18.8397
18.9839
19.1252
19.2633
19.3982
19.5301
19.6589
19.7848
19.9078
20.0276
20.1448
20.2599
20.3727
20.4837
20.5928
20.7006
20.8071
20.9124
21.0168
21.1198
21.2221
21.324
21.4253
21.5263
21.6265
21.7257
21.8241
21.9214
22.0174
22.112
22.2049
22.2958
22.3846
22.4711
22.555
22.6362
22.7144
22.79
22.8622
22.9312
22.9968
23.0585
23.1168
23.1716
23.2229
23.2704
23.3145
23.3548
23.3915
23.4254
23.4558
23.4821
23.505
23.5242
23.54
23.5527
23.5621
23.5683
23.5716
23.5719
23.5698
23.5655
23.5593
23.5516
23.5428
23.5334
23.5239
23.5147
23.5065
23.5
23.4957
23.494
23.4959
23.5019
23.5126
23.5286
23.5505
23.5787
23.6136
23.6558
23.7054
23.7626
23.8277
23.9004
23.9813
24.0701
24.1669
24.2714
24.3834
24.5028
24.6293
24.7624
24.902
25.0478
25.1996
25.3573
25.5205
25.6888
25.8621
26.0404
26.2235
26.4112
26.6036
26.8
27.0012
27.2077
27.4191
27.6354
27.8568
28.0832
28.315
28.5519
28.7944
29.043
29.2973
29.5569
29.8222
30.0934
30.3702
30.652
30.939
31.2314
31.5285
31.8298
32.1352
32.4439
32.7558
33.0702
33.3868
33.705
34.0243
34.3444
34.6644
34.9836
35.3017
35.618
35.9321
36.2443
36.5534
36.8587
37.1603
37.4579
37.7512
38.04
38.3242
38.6034
38.8781
39.1488
39.4153
39.6775
39.9359
40.1906
40.4419
40.6903
40.936
41.1791
41.4203
41.6597
41.8978
42.1348
42.3708
42.6062
42.8408
43.075
43.3087
43.5411
43.7726
44.0028
44.2316
44.4588
44.6838
44.9061
45.1252
45.3407
45.5519
45.7583
45.9593
46.1538
46.3419
46.5236
46.698
46.8647
47.0233
47.1737
47.3156
47.4492
47.5742
47.691
47.7993
47.8992
47.991
48.0756
48.1529
48.2231
48.2867
48.3446
48.3969
48.4445
48.4876
48.5273
48.5636
48.5967
48.6275
48.6574
48.686
48.7141
48.7419
48.7702
48.7989
48.8286
48.8595
48.8924
48.927
48.9636
49.0024
49.0436
49.0871
49.1332
49.1814
49.2319
49.2842
49.3386
49.3945
49.4513
49.5089
49.5673
49.6257
49.6842
49.7417
49.7982
49.8527
49.9051
49.9546
50.0003
50.0419
50.0789
50.1106
50.137
50.157
50.1706
50.1768
50.1753
50.1657
50.1479
50.1214
50.086
50.0415
49.9887
49.9266
49.8555
49.7752
49.6863
49.5885
49.4826
49.3687
49.2478
49.1195
48.9843
48.8428
48.6957
48.5433
48.3865
48.2254
48.0613
47.8939
47.7232
47.55
47.375
47.1978
47.0188
46.8378
46.6551
46.4704
46.284
46.0954
45.9045
45.7105
45.5133
45.312
45.1062
44.8953
44.679
44.4566
44.2276
43.9914
43.7477
43.4957
43.235
42.9653
42.686
42.3971
42.0989
41.7908
41.4733
41.1461
40.8096
40.4638
40.1092
39.7459
39.3742
38.9944
38.6069
38.2121
37.8104
37.4018
36.9873
36.5665
36.1396
35.7069
35.2688
34.825
34.3757
33.9209
33.4611
32.9962
32.5263
32.0515
31.5725
31.0892
30.6018
30.111
29.6176
29.122
28.625
28.1272
27.6298
27.1334
26.6392
26.1481
25.6613
25.1797
24.7046
24.2365
23.7762
23.3244
22.8817
22.4484
22.0249
21.6112
21.2075
20.813
20.4278
20.0508
19.681
19.3174
18.9591
18.6043
18.252
17.9006
17.5488
17.1952
16.8388
16.4778
16.1114
15.7379
15.3565
14.9663
14.567
14.1579
13.7391
13.3103
12.8718
12.4238
11.9671
11.502
11.0293
10.5496
10.0639
9.57306
9.07802
8.57961
8.07871
7.57603
7.07249
6.56832
6.06374
5.5591
5.05438
4.54968
4.04531
3.5404
3.03482
2.52767
2.01812
1.50551
0.98927
0.468513
-0.0573601
-0.589474
-1.12827
-1.67481
-2.22999
-2.79425
-3.36782
-3.95133
-4.5454
-5.14985
-5.76459
-6.38969
-7.02465
-7.66945
-8.32357
-8.98659
-9.65808
-10.3374
-11.0234
-11.7159
-12.4141
-13.1173
-13.8243
-14.5348
-15.2479
-15.9632
-16.6799
-17.3976
-18.1154
-18.8333
-19.5505
-20.2671
-20.9829
-21.6977
-22.4118
-23.1249
-23.837
-24.5481
-25.258
-25.9673
-26.6764
-27.3852
-28.0936
-28.8022
-29.5111
-30.2207
-30.9311
-31.6425
-32.3552
-33.0693
-33.785
-34.5021
-35.2206
-35.9406
-36.662
-37.3845
-38.108
-38.8324
-39.5575
-40.2829
-41.0081
-41.7329
-42.4572
-43.1803
-43.902
-44.6216
-45.3385
-46.0524
-46.7628
-47.4694
-48.1717
-48.8691
-49.5615
-50.2484
-50.9293
-51.6041
-52.2723
-52.9339
-53.5888
-54.2367
-54.8775
-55.5113
-56.1383
-56.7583
-57.3714
-57.9775
-58.5769
-59.1696
-59.7556
-60.335
-60.9078
-61.4742
-62.0346
-62.5887
-63.1366
-63.6784
-64.2143
-64.7442
-65.2685
-65.787
-66.2999
-66.8071
-67.309
-67.8054
-68.2971
-68.7837
-69.266
-69.744
-70.2185
-70.6895
-71.1574
-71.6228
-72.0862
-72.5482
-73.0097
-73.4711
-73.9332
-74.3965
-74.8612
-75.3281
-75.7985
-76.2721
-76.7495
-77.2309
-77.7164
-78.2063
-78.7005
-79.199
-79.7015
-80.2078
-80.7176
-81.2302
-81.7449
-82.2611
-82.7782
-83.2951
-83.8104
-84.3235
-84.8333
-85.3387
-85.8386
-86.332
-86.8179
-87.2953
-87.7636
-88.2219
-88.6699
-89.1069
-89.5322
-89.9459
-90.3478
-90.7381
-91.1164
-91.4838
-91.8412
-92.1891
-92.5284
-92.86
-93.1847
-93.5039
-93.8191
-94.1315
-94.4419
-94.7522
-95.0634
-95.3773
-95.6956
-96.0192
-96.3486
-96.6856
-97.0311
-97.3861
-97.7513
-98.1274
-98.5148
-98.9142
-99.3253
-99.7488
-100.185
-100.633
-101.093
-101.565
-102.048
-102.543
-103.048
-103.564
-104.089
-104.624
-105.168
-105.721
-106.281
-106.85
-107.425
-108.007
-108.596
-109.192
-109.793
-110.401
-111.015
-111.634
-112.26
-112.891
-113.529
-114.173
-114.823
-115.48
-116.143
-116.813
-117.489
-118.173
-118.863
-119.561
-120.266
-120.978
-121.697
-122.424
-123.158
-123.9
-124.65
-125.407
-126.172
-126.945
-127.726
-128.516
-129.314
-130.121
-130.936
-131.76
-132.593
-133.436
-134.287
-135.148
-136.019
-136.899
-137.789
-138.688
-139.596
-140.513
-141.438
-142.371
-143.312
-144.259
-145.212
-146.17
-147.132
-148.097
-149.064
-150.032
-150.999
-151.965
-152.927
-153.886
-154.84
-155.788
-156.729
-157.662
-158.587
-159.502
-160.407
-161.303
-162.187
-163.061
-163.924
-164.777
-165.618
-166.448
-167.269
-168.08
-168.881
-169.674
-170.457
-171.232
-172
-172.759
-173.512
-174.257
-174.995
-175.726
-176.451
-177.169
-177.88
-178.585
-179.282
-179.971
-180.652
-181.326
-181.992
-182.649
-183.298
-183.938
-184.569
-185.192
-185.806
-186.411
-187.007
-187.595
-188.175
-188.747
-189.313
-189.872
-190.425
-190.972
-191.515
-192.053
-192.588
-193.12
-193.649
-194.176
-194.701
-195.223
-195.745
-196.265
-196.784
-197.302
-197.818
-198.333
-198.845
-199.355
-199.862
-200.366
-200.866
-201.362
-201.852
-202.338
-202.817
-203.291
-203.759
-204.219
-204.674
-205.121
-205.562
-205.996
-206.423
-206.844
-207.259
-207.667
-208.07
-208.467
-208.86
-209.249
-209.632
-210.011
-210.387
-210.758
-211.126
-211.49
-211.852
-212.209
-212.564
-212.915
-213.261
-213.604
-213.942
-214.276
-214.605
-214.928
-215.246
-215.558
-215.864
-216.163
-216.455
-216.74
-217.018
-217.289
-217.552
-217.808
-218.057
-218.298
-218.532
-218.759
-218.98
-219.193
-219.401
-219.602
-219.797
-219.987
-220.171
-220.351
-220.526
-220.697
-220.864
-221.028
-221.187
-221.343
-221.496
-221.646
-221.793
-221.938
-222.079
-222.219
-222.356
-222.492
-222.626
-222.758
-222.889
-223.019
-223.148
-223.276
-223.404
-223.531
-223.659
-223.786
-223.914
-224.043
-224.173
-224.303
-224.434
-224.566
-224.699
-224.832
-224.966
-225.101
-225.235
-225.369
-225.502
-225.633
-225.762
-225.889
-226.012
-226.132
-226.247
-226.358
-226.463
-226.562
-226.655
-226.742
-226.822
-226.896
-226.962
-227.022
-227.075
-227.122
-227.163
-227.197
-227.227
-227.252
-227.275
-227.294
-227.31
-227.326
-227.34
-227.354
-227.369
-227.386
-227.403
-227.423
-227.445
-227.47
-227.499
-227.53
-227.564
-227.601
-227.641
-227.684
-227.728
-227.775
-227.822
-227.871
-227.919
-227.967
-228.014
-228.059
-228.103
-228.144
-228.182
-228.217
-228.249
-228.276
-228.299
-228.318
-228.333
-228.344
-228.352
-228.355
-228.355
-228.35
-228.343
-228.332
-228.319
-228.304
-228.285
-228.265
-228.243
-228.219
-228.195
-228.169
-228.142
-228.114
-228.085
-228.055
-228.025
-227.994
-227.963
-227.931
-227.898
-227.864
-227.829
-227.794
-227.757
-227.719
-227.68
-227.64
-227.6
-227.558
-227.515
-227.471
-227.426
-227.381
-227.334
-227.286
-227.238
-227.189
-227.14
-227.091
-227.041
-226.991
-226.942
-226.892
-226.843
-226.793
-226.745
-226.697
-226.649
-226.601
-226.554
-226.507
-226.46
-226.413
-226.366
-226.32
-226.273
-226.225
-226.177
-226.128
-226.078
-226.026
-225.972
-225.917
-225.859
-225.8
-225.738
-225.673
-225.606
-225.536
-225.464
-225.389
-225.311
-225.23
-225.148
-225.063
-224.976
-224.886
-224.796
-224.703
-224.608
-224.511
-224.413
-224.314
-224.212
-224.109
-224.005
-223.898
-223.79
-223.68
-223.568
-223.453
-223.336
-223.215
-223.092
-222.965
-222.834
-222.699
-222.56
-222.417
-222.269
-222.118
-221.962
-221.801
-221.637
-221.469
-221.296
-221.12
-220.94
-220.757
-220.57
-220.381
-220.189
-219.994
-219.796
-219.596
-219.393
-219.188
-218.98
-218.77
-218.557
-218.341
-218.123
-217.902
-217.678
-217.45
-217.218
-216.983
-216.743
-216.499
-216.252
-216
-215.743
-215.482
-215.217
-214.947
-214.674
-214.396
-214.115
-213.83
-213.542
-213.25
-212.955
-212.657
-212.357
-212.053
-211.747
-211.439
-211.129
-210.816
-210.501
-210.183
-209.864
-209.542
-209.217
-208.891
-208.562
-208.231
-207.897
-207.561
-207.222
-206.882
-206.539
-206.194
-205.848
-205.5
-205.151
-204.801
-204.451
-204.1
-203.748
-203.397
-203.047
-202.697
-202.347
-201.999
-201.652
-201.305
-200.96
-200.616
-200.273
-199.931
-199.589
-199.248
-198.906
-198.564
-198.222
-197.879
-197.534
-197.188
-196.84
-196.49
-196.138
-195.784
-195.428
-195.069
-194.708
-194.346
-193.981
-193.615
-193.247
-192.878
-192.508
-192.138
-191.768
-191.398
-191.028
-190.66
-190.293
-189.928
-189.565
-189.204
-188.846
-188.489
-188.135
-187.784
-187.434
-187.086
-186.741
-186.396
-186.053
-185.71
-185.367
-185.024
-184.681
-184.337
-183.992
-183.645
-183.297
-182.947
-182.594
-182.239
-181.882
-181.522
-181.159
-180.795
-180.428
-180.059
-179.688
-179.316
-178.943
-178.57
-178.196
-177.823
-177.451
-177.081
-176.712
-176.346
-175.983
-175.622
-175.265
-174.912
-174.563
-174.218
-173.878
-173.543
-173.212
-172.886
-172.565
-172.248
-171.936
-171.628
-171.324
-171.025
-170.73
-170.439
-170.15
-169.866
-169.584
-169.306
-169.031
-168.758
-168.488
-168.22
-167.955
-167.692
-167.431
-167.172
-166.916
-166.661
-166.409
-166.158
-165.91
-165.663
-165.418
-165.174
-164.932
-164.692
-164.454
-164.218
-163.982
-163.748
-163.515
-163.284
-163.053
-162.824
-162.595
-162.367
-162.14
-161.915
-161.689
-161.464
-161.24
-161.017
-160.795
-160.573
-160.352
-160.132
-159.911
-159.691
-159.471
-159.252
-159.032
-158.813
-158.594
-158.375
-158.156
-157.937
-157.718
-157.5
-157.281
-157.063
-156.846
-156.629
-156.412
-156.197
-155.983
-155.77
-155.56
-155.352
-155.147
-154.945
-154.747
-154.552
-154.362
-154.176
-153.995
-153.82
-153.649
-153.484
-153.325
-153.172
-153.023
-152.88
-152.743
-152.611
-152.484
-152.361
-152.243
-152.129
-152.018
-151.91
-151.806
-151.704
-151.603
-151.504
-151.406
-151.309
-151.213
-151.117
-151.021
-150.925
-150.828
-150.731
-150.634
-150.536
-150.438
-150.339
-150.239
-150.139
-150.038
-149.936
-149.834
-149.731
-149.627
-149.523
-149.419
-149.314
-149.208
-149.102
-148.995
-148.888
-148.78
-148.672
-148.563
-148.454
-148.345
-148.236
-148.127
-148.018
-147.91
-147.802
-147.695
-147.59
-147.486
-147.383
-147.282
-147.184
-147.087
-146.992
-146.898
-146.807
-146.717
-146.629
-146.542
-146.456
-146.371
-146.285
-146.199
-146.111
-146.022
-145.93
-145.836
-145.737
-145.635
-145.527
-145.413
-145.293
-145.167
-145.034
-144.894
-144.746
-144.591
-144.428
-144.258
-144.081
-143.897
-143.706
-143.51
-143.308
-143.101
-142.89
-142.675
-142.457
-142.237
-142.015
-141.792
-141.568
-141.345
-141.122
-140.901
-140.681
-140.464
-140.249
-140.037
-139.827
-139.62
-139.416
-139.215
-139.017
-138.822
-138.629
-138.439
-138.251
-138.066
-137.882
-137.701
-137.521
-137.342
-137.164
-136.987
-136.811
-136.636
-136.461
-136.286
-136.111
-135.936
-135.761
-135.585
-135.409
-135.233
-135.056
-134.878
-134.7
-134.521
-134.342
-134.162
-133.982
-133.801
-133.621
-133.44
-133.259
-133.078
-132.897
-132.718
-132.539
-132.361
-132.185
-132.01
-131.838
-131.667
-131.498
-131.332
-131.169
-131.008
-130.851
-130.696
-130.544
-130.394
-130.247
-130.103
-129.961
-129.822
-129.685
-129.549
-129.415
-129.282
-129.149
-129.017
-128.885
-128.752
-128.619
-128.485
-128.35
-128.214
-128.076
-127.937
-127.796
-127.653
-127.509
-127.363
-127.215
-127.066
-126.915
-126.762
-126.609
-126.454
-126.298
-126.142
-125.986
-125.829
-125.672
-125.516
-125.36
-125.205
-125.05
-124.896
-124.744
-124.593
-124.444
-124.297
-124.152
-124.009
-123.868
-123.731
-123.596
-123.464
-123.335
-123.21
-123.088
-122.971
-122.857
-122.747
-122.642
-122.54
-122.443
-122.349
-122.259
-122.172
-122.089
-122.008
-121.93
-121.853
-121.778
-121.703
-121.628
-121.554
-121.478
-121.4
-121.32
-121.237
-121.15
-121.059
-120.963
-120.863
-120.758
-120.647
-120.531
-120.41
-120.284
-120.153
-120.017
-119.877
-119.734
-119.588
-119.439
-119.288
-119.137
-118.985
-118.833
-118.682
-118.531
-118.383
-118.236
-118.09
-117.947
-117.806
-117.667
-117.53
-117.394
-117.259
-117.126
-116.992
-116.858
-116.723
-116.586
-116.447
-116.305
-116.159
-116.01
-115.857
-115.699
-115.535
-115.367
-115.194
-115.015
-114.832
-114.643
-114.45
-114.253
-114.053
-113.849
-113.643
-113.435
-113.226
-113.016
-112.807
-112.598
-112.39
-112.184
-111.979
-111.776
-111.577
-111.379
-111.185
-110.993
-110.803
-110.616
-110.43
-110.246
-110.063
-109.881
-109.699
-109.517
-109.333
-109.148
-108.961
-108.771
-108.578
-108.382
-108.182
-107.978
-107.769
-107.557
-107.339
-107.118
-106.893
-106.663
-106.431
-106.197
-105.959
-105.719
-105.478
-105.237
-104.996
-104.755
-104.517
-104.28
-104.046
-103.815
-103.588
-103.365
-103.146
-102.933
-102.725
-102.522
-102.324
-102.131
-101.942
-101.758
-101.578
-101.402
-101.229
-101.058
-100.888
-100.72
-100.552
-100.384
-100.214
-100.043
-99.8692
-99.6927
-99.5131
-99.3298
-99.1421
-98.95
-98.7534
-98.5522
-98.3462
-98.1356
-97.9205
-97.7012
-97.4774
-97.2502
-97.02
-96.7873
-96.5531
-96.3175
-96.081
-95.8443
-95.6079
-95.3724
-95.1384
-94.9065
-94.6767
-94.4496
-94.2257
-94.0053
-93.7884
-93.5755
-93.3672
-93.1632
-92.9633
-92.7678
-92.5764
-92.3892
-92.206
-92.0267
-91.8507
-91.678
-91.5084
-91.3415
-91.1771
-91.0149
-90.8549
-90.6965
-90.5391
-90.3828
-90.2279
-90.0737
-89.9199
-89.7665
-89.6131
-89.4599
-89.3067
-89.1536
-89.001
-88.8486
-88.6964
-88.5444
-88.3931
-88.2424
-88.092
-87.9424
-87.7936
-87.6459
-87.4995
-87.3543
-87.2096
-87.0659
-86.9234
-86.7817
-86.6405
-86.4998
-86.3593
-86.2186
-86.0774
-85.9355
-85.7924
-85.6479
-85.5014
-85.3526
-85.2011
-85.0468
-84.8893
-84.7285
-84.5643
-84.3966
-84.2251
-84.0503
-83.8721
-83.691
-83.5072
-83.3213
-83.1338
-82.9454
-82.7562
-82.5673
-82.3797
-82.1939
-82.0105
-81.8303
-81.6537
-81.4815
-81.3145
-81.153
-80.9973
-80.848
-80.7055
-80.5694
-80.4399
-80.3166
-80.1995
-80.0881
-79.9815
-79.8794
-79.7811
-79.6858
-79.5928
-79.5011
-79.4099
-79.3183
-79.2254
-79.1305
-79.0328
-78.9316
-78.8266
-78.7172
-78.6028
-78.4834
-78.3589
-78.2292
-78.0946
-77.9553
-77.8117
-77.6643
-77.5136
-77.3604
-77.2051
-77.0487
-76.8918
-76.7354
-76.5804
-76.4273
-76.2766
-76.1289
-75.9846
-75.8444
-75.7082
-75.5766
-75.4498
-75.3277
-75.2099
-75.0966
-74.9878
-74.8828
-74.7814
-74.6832
-74.587
-74.4929
-74.4004
-74.3091
-74.2186
-74.1283
-74.0373
-73.9459
-73.8539
-73.761
-73.667
-73.5719
-73.4756
-73.3782
-73.2793
-73.1795
-73.0792
-72.9785
-72.8769
-72.7753
-72.674
-72.5732
-72.473
-72.3737
-72.2754
-72.1781
-72.0817
-71.9863
-71.8919
-71.7985
-71.706
-71.6143
-71.5231
-71.4322
-71.3419
-71.2516
-71.1604
-71.0688
-70.9773
-70.8851
-70.7917
-70.6974
-70.6022
-70.5059
-70.4082
-70.3096
-70.2103
-70.1103
-70.0094
-69.9082
-69.8069
-69.7056
-69.6048
-69.5046
-69.4052
-69.3069
-69.2095
-69.1137
-69.0198
-68.9279
-68.8382
-68.7507
-68.666
-68.5838
-68.504
-68.4267
-68.3518
-68.2795
-68.2099
-68.1426
-68.0773
-68.0142
-67.9535
-67.8948
-67.8379
-67.7826
-67.7287
-67.676
-67.6242
-67.5731
-67.5227
-67.4724
-67.4216
-67.3704
-67.3184
-67.2654
-67.2114
-67.1558
-67.0984
-67.0388
-66.9765
-66.9115
-66.8433
-66.772
-66.6974
-66.6193
-66.5378
-66.4527
-66.364
-66.2717
-66.1759
-66.0766
-65.9739
-65.8681
-65.7597
-65.6486
-65.535
-65.4194
-65.3021
-65.1834
-65.0642
-64.9444
-64.8246
-64.7048
-64.5848
-64.4653
-64.3468
-64.2292
-64.1126
-63.997
-63.8822
-63.7684
-63.656
-63.5444
-63.4334
-63.3229
-63.2127
-63.1024
-62.9919
-62.8809
-62.7698
-62.6579
-62.5445
-62.4298
-62.314
-62.1965
-62.077
-61.9556
-61.8322
-61.7068
-61.5795
-61.4502
-61.3194
-61.1869
-61.0527
-60.9169
-60.7799
-60.6414
-60.5016
-60.3604
-60.2181
-60.0744
-59.9288
-59.7818
-59.6335
-59.4832
-59.3311
-59.1765
-59.019
-58.8584
-58.6945
-58.5268
-58.3548
-58.1781
-57.9966
-57.8097
-57.6167
-57.4175
-57.2119
-56.9996
-56.7805
-56.5547
-56.3223
-56.0833
-55.8379
-55.5864
-55.3294
-55.0672
-54.8005
-54.5296
-54.2551
-53.9778
-53.6987
-53.4182
-53.1376
-52.8572
-52.5776
-52.2996
-52.024
-51.751
-51.481
-51.2143
-50.9513
-50.6923
-50.4373
-50.1861
-49.9387
-49.6947
-49.4538
-49.2154
-48.9789
-48.744
-48.51
-48.2763
-48.0428
-47.8084
-47.5726
-47.3349
-47.0944
-46.851
-46.605
-46.3556
-46.1029
-45.8468
-45.5869
-45.3238
-45.0578
-44.7889
-44.5177
-44.2445
-43.9696
-43.6938
-43.4178
-43.142
-42.8669
-42.5931
-42.3209
-42.051
-41.7833
-41.5186
-41.2571
-40.9991
-40.7447
-40.4941
-40.2474
-40.0044
-39.7649
-39.529
-39.2965
-39.0671
-38.8402
-38.6159
-38.3943
-38.1747
-37.9564
-37.7397
-37.5245
-37.3105
-37.0981
-36.8867
-36.6758
-36.4657
-36.2564
-36.0481
-35.8408
-35.6346
-35.4296
-35.2259
-35.0228
-34.8211
-34.6211
-34.4227
-34.2258
-34.0306
-33.8375
-33.6461
-33.4566
-33.2689
-33.0829
-32.8986
-32.716
-32.5348
-32.3546
-32.1755
-31.9968
-31.8188
-31.6415
-31.4645
-31.2874
-31.1101
-30.9331
-30.7558
-30.5775
-30.3986
-30.2187
-30.0382
-29.8568
-29.6749
-29.4927
-29.3102
-29.1273
-28.9444
-28.7616
-28.5794
-28.3982
-28.2182
-28.0394
-27.8624
-27.6878
-27.5157
-27.3464
-27.1802
-27.0174
-26.8582
-26.7023
-26.5505
-26.4029
-26.2596
-26.1206
-25.9859
-25.8551
-25.7284
-25.6053
-25.4859
-25.3705
-25.2584
-25.1488
-25.042
-24.9378
-24.8356
-24.7352
-24.6362
-24.5386
-24.4418
-24.3452
-24.249
-24.153
-24.0568
-23.96
-23.8627
-23.7652
-23.6669
-23.567
-23.4661
-23.364
-23.2606
-23.1563
-23.0508
-22.9439
-22.8358
-22.7268
-22.6168
-22.5061
-22.3948
-22.2824
-22.1697
-22.0572
-21.9448
-21.8329
-21.7219
-21.6117
-21.5028
-21.3954
-21.2899
-21.1863
-21.085
-20.9866
-20.8911
-20.7991
-20.7105
-20.6253
-20.5437
-20.4657
-20.3914
-20.3209
-20.2539
-20.1903
-20.1299
-20.0726
-20.0181
-19.9661
-19.9162
-19.8683
-19.8218
-19.7762
-19.7314
-19.6863
-19.6412
-19.5961
-19.5503
-19.5034
-19.4554
-19.4059
-19.3551
-19.303
-19.2495
-19.1954
-19.1402
-19.0839
-19.027
-18.9697
-18.9124
-18.8553
-18.7989
-18.7431
-18.6886
-18.6359
-18.5849
-18.5355
-18.4883
-18.4431
-18.4002
-18.3601
-18.3224
-18.2869
-18.2535
-18.2216
-18.1914
-18.1622
-18.134
-18.1062
-18.0787
-18.0515
-18.024
-17.9964
-17.9678
-17.9377
-17.9061
-17.873
-17.8381
-17.8014
-17.7628
-17.7217
-17.6787
-17.6337
-17.587
-17.5387
-17.4887
-17.437
-17.384
-17.3298
-17.2748
-17.2196
-17.1643
-17.1088
-17.0536
-16.9987
-16.9445
-16.8909
-16.8384
-16.7873
-16.738
-16.6901
-16.6442
-16.6008
-16.5598
-16.5208
-16.4842
-16.4504
-16.4191
-16.3899
-16.3632
-16.3393
-16.3177
-16.2979
-16.2801
-16.2642
-16.2498
-16.2362
-16.2233
-16.2113
-16.1994
-16.187
-16.1739
-16.1592
-16.143
-16.1251
-16.105
-16.0823
-16.0567
-16.0281
-15.9964
-15.9615
-15.9232
-15.8813
-15.8362
-15.7886
-15.7384
-15.6855
-15.6306
-15.5741
-15.5164
-15.458
-15.3994
-15.3415
-15.2845
-15.2285
-15.1741
-15.1217
-15.0717
-15.0243
-14.9798
-14.9381
-14.8994
-14.8637
-14.8311
-14.801
-14.7737
-14.7489
-14.7261
-14.7051
-14.6856
-14.667
-14.6493
-14.6325
-14.6159
-14.5988
-14.5815
-14.5639
-14.5458
-14.527
-14.5075
-14.4873
-14.4663
-14.4442
-14.4215
-14.398
-14.374
-14.3492
-14.3239
-14.2985
-14.2727
-14.2467
-14.2203
-14.1931
-14.1654
-14.1372
-14.1082
-14.0782
-14.0472
-14.0152
-13.9819
-13.9469
-13.9104
-13.8725
-13.8332
-13.7927
-13.751
-13.7082
-13.6645
-13.6204
-13.5761
-13.5319
-13.4881
-13.4454
-13.4041
-13.3643
-13.327
-13.2924
-13.2609
-13.2332
-13.2093
-13.1894
-13.1736
-13.1612
-13.1527
-13.1483
-13.1474
-13.1498
-13.1551
-13.1627
-13.1722
-13.1826
-13.1936
-13.2044
-13.2144
-13.2232
-13.2301
-13.2343
-13.2355
-13.2335
-13.2276
-13.2173
-13.2026
-13.1832
-13.1592
-13.1308
-13.098
-13.0616
-13.0215
-12.9777
-12.9312
-12.8826
-12.8323
-12.7814
-12.7302
-12.6791
-12.629
-12.58
-12.5332
-12.4891
-12.4485
-12.412
-12.3799
-12.3523
-12.3297
-12.3124
-12.3007
-12.2949
-12.2947
-12.3004
-12.3116
-12.328
-12.3496
-12.3757
-12.4061
-12.4404
-12.4782
-12.5187
-12.5614
-12.6058
-12.6511
-12.6962
-12.7408
-12.7841
-12.8257
-12.8646
-12.9008
-12.9339
-12.9633
-12.9888
-13.0101
-13.0272
-13.0403
-13.0496
-13.0551
-13.0568
-13.0556
-13.052
-13.0464
-13.0394
-13.0316
-13.0234
-13.0156
-13.0092
-13.0045
-13.0021
-13.0022
-13.005
-13.0108
-13.0196
-13.0314
-13.0464
-13.0643
-13.0845
-13.1068
-13.1308
-13.1558
-13.1809
-13.2058
-13.2302
-13.2531
-13.2737
-13.292
-13.3072
-13.3192
-13.328
-13.3332
-13.3351
-13.3335
-13.3286
-13.321
-13.3113
-13.2999
-13.2868
-13.2734
-13.2604
-13.2485
-13.238
-13.2298
-13.2244
-13.2222
-13.2239
-13.2295
-13.2392
-13.2532
-13.271
-13.2926
-13.3172
-13.3447
-13.3741
-13.4051
-13.4372
-13.4693
-13.5007
-13.5306
-13.5583
-13.5831
-13.6047
-13.6222
-13.6351
-13.6432
-13.6466
-13.6451
-13.6386
-13.6276
-13.6125
-13.5937
-13.5714
-13.5466
-13.5197
-13.4915
-13.4631
-13.435
-13.4077
-13.3823
-13.3596
-13.3399
-13.3238
-13.3118
-13.3044
-13.3017
-13.3036
-13.3106
-13.3229
-13.3402
-13.3628
-13.3903
-13.4224
-13.459
-13.4998
-13.5445
-13.5929
-13.6444
-13.6988
-13.7557
-13.8145
-13.8751
-13.9366
-13.9992
-14.0628
-14.1268
-14.1908
-14.2547
-14.3181
-14.3808
-14.4422
-14.5021
-14.5605
-14.6167
-14.6702
-14.7211
-14.7696
-14.815
-14.8575
-14.8966
-14.9319
-14.9636
-14.9916
-15.0162
-15.0378
-15.0562
-15.0714
-15.0838
-15.094
-15.102
-15.1081
-15.1125
-15.1159
-15.1186
-15.121
-15.1236
-15.1264
-15.1302
-15.1351
-15.1415
-15.1497
-15.1598
-15.172
-15.1864
-15.2028
-15.2213
-15.2418
-15.2641
-15.2883
-15.3137
-15.34
-15.367
-15.3939
-15.4208
-15.4477
-15.4737
-15.4988
-15.5222
-15.5436
-15.5628
-15.5792
-15.5929
-15.6041
-15.6125
-15.6177
-15.62
-15.6196
-15.6165
-15.6108
-15.6026
-15.5925
-15.5806
-15.567
-15.5522
-15.5367
-15.5207
-15.5044
-15.4884
-15.4737
-15.4599
-15.4474
-15.4364
-15.4273
-15.4201
-15.4149
-15.412
-15.411
-15.4123
-15.4164
-15.4227
-15.4304
-15.4401
-15.4522
-15.4661
-15.4814
-15.4982
-15.5162
-15.5354
-15.5557
-15.5769
-15.5991
-15.622
-15.6456
-15.6698
-15.6945
-15.7197
-15.7455
-15.7717
-15.798
-15.8246
-15.8513
-15.8783
-15.905
-15.9318
-15.9586
-15.9852
-16.0118
-16.0378
-16.0627
-16.0869
-16.1105
-16.133
-16.1543
-16.1743
-16.193
-16.2102
-16.2255
-16.2392
-16.2514
-16.2619
-16.2712
-16.2791
-16.2855
-16.2909
-16.2956
-16.2997
-16.3033
-16.3068
-16.3102
-16.3137
-16.3173
-16.3216
-16.3275
-16.3345
-16.3426
-16.3521
-16.3633
-16.3762
-16.3912
-16.4082
-16.4274
-16.4485
-16.4717
-16.4968
-16.5238
-16.5524
-16.5824
-16.614
-16.6467
-16.6807
-16.7163
-16.7529
-16.7904
-16.8286
-16.8674
-16.9065
-16.9458
-16.985
-17.0235
-17.0614
-17.0986
-17.1344
-17.1686
-17.2008
-17.2304
-17.2572
-17.2808
-17.3005
-17.3163
-17.3273
-17.3333
-17.3338
-17.3281
-17.3158
-17.2966
-17.2701
-17.2361
-17.1944
-17.1453
-17.0882
-17.0228
-16.9496
-16.8688
-16.7806
-16.6854
-16.5836
-16.4755
-16.3618
-16.2434
-16.1204
-15.9933
-15.8629
-15.7299
-15.5948
-15.4587
-15.3218
-15.1843
-15.0467
-14.9093
-14.7726
-14.6369
-14.5021
-14.3684
-14.2356
-14.1038
-13.9729
-13.8423
-13.712
-13.5821
-13.4519
-13.3205
-13.1882
-13.0542
-12.9186
-12.7814
-12.642
-12.5002
-12.3558
-12.209
-12.0593
-11.9064
-11.7508
-11.5927
-11.4322
-11.2698
-11.1054
-10.9389
-10.7711
-10.6025
-10.4331
-10.2637
-10.0943
-9.92478
-9.75601
-9.58812
-9.42145
-9.25674
-9.09387
-8.93255
-8.77348
-8.61681
-8.46272
-8.31094
-8.16206
-8.01649
-7.87416
-7.73517
-7.59971
-7.46749
-7.33926
-7.21552
-7.09622
-6.98136
-6.87135
-6.76634
-6.66668
-6.57229
-6.48369
-6.40113
-6.32485
-6.25454
-6.1908
-6.1338
-6.08354
-6.03988
-6.00303
-5.9729
-5.94944
-5.93212
-5.92131
-5.91681
-5.91836
-5.92559
-5.93851
-5.95705
-5.98091
-6.00926
-6.04271
-6.08087
-6.1238
-6.17146
-6.22373
-6.28043
-6.34176
-6.40752
-6.47792
-6.553
-6.63291
-6.71727
-6.80656
-6.90064
-6.99976
-7.10399
-7.21321
-7.32722
-7.44599
-7.56918
-7.69686
-7.82863
-7.96446
-8.10411
-8.24725
-8.39321
-8.54208
-8.6934
-8.84712
-9.00289
-9.16051
-9.31971
-9.48062
-9.64304
-9.8072
-9.97345
-10.1416
-10.3119
-10.4845
-10.6593
-10.8372
-11.0186
-11.204
-11.3937
-11.5882
-11.7876
-11.9925
-12.2029
-12.4192
-12.6412
-12.8692
-13.1031
-13.3427
-13.5878
-13.8381
-14.0932
-14.3525
-14.6148
-14.8797
-15.1464
-15.4141
-15.6821
-15.9493
-16.215
-16.4784
-16.7381
-16.9938
-17.2451
-17.4909
-17.7301
-17.9628
-18.1892
-18.4084
-18.6202
-18.8246
-19.0214
-19.211
-19.3935
-19.5692
-19.7388
-19.9024
-20.0604
-20.2134
-20.3623
-20.5073
-20.6488
-20.7875
-20.9243
-21.0594
-21.1931
-21.3261
-21.4587
-21.5912
-21.7238
-21.8569
-21.9908
-22.1255
-22.2614
-22.3983
-22.5367
-22.6762
-22.8167
-22.9582
-23.1007
-23.244
-23.3881
-23.5328
-23.678
-23.8236
-23.9697
-24.1159
-24.2621
-24.4082
-24.5537
-24.699
-24.8442
-24.9889
-25.1331
-25.2767
-25.4202
-25.5631
-25.7053
-25.847
-25.9879
-26.1283
-26.2686
-26.4085
-26.5487
-26.6885
-26.8279
-26.967
-27.1052
-27.243
-27.3808
-27.5179
-27.654
-27.7892
-27.9237
-28.057
-28.1887
-28.3189
-28.4476
-28.5745
-28.699
-28.8214
-28.9413
-29.0588
-29.1737
-29.2863
-29.3968
-29.505
-29.6111
-29.7154
-29.8184
-29.9203
-30.0214
-30.1221
-30.2227
-30.3237
-30.4257
-30.529
-30.6342
-30.7413
-30.8501
-30.9611
-31.0748
-31.1908
-31.3093
-31.43
-31.5524
-31.6766
-31.802
-31.9282
-32.0547
-32.1808
-32.3063
-32.43
-32.5515
-32.6703
-32.7859
-32.8977
-33.005
-33.1077
-33.2054
-33.298
-33.3852
-33.4672
-33.5443
-33.6165
-33.6842
-33.7475
-33.807
-33.8629
-33.9162
-33.967
-34.0155
-34.0625
-34.1089
-34.1548
-34.2004
-34.2465
-34.294
-34.3425
-34.3923
-34.4436
-34.4966
-34.5512
-34.6072
-34.6649
-34.7243
-34.7849
-34.8467
-34.9094
-34.973
-35.0371
-35.1009
-35.1647
-35.2283
-35.2915
-35.3542
-35.4162
-35.4777
-35.5382
-35.5976
-35.6558
-35.7122
-35.7671
-35.8207
-35.8727
-35.9235
-35.9725
-36.02
-36.0656
-36.1094
-36.1513
-36.1913
-36.2292
-36.2651
-36.2986
-36.3298
-36.3586
-36.3852
-36.4093
-36.4305
-36.4491
-36.465
-36.4783
-36.4888
-36.4967
-36.5019
-36.5044
-36.5047
-36.5028
-36.4984
-36.4921
-36.484
-36.4744
-36.4633
-36.4513
-36.4389
-36.4262
-36.4132
-36.4004
-36.3885
-36.3777
-36.3681
-36.3601
-36.3541
-36.3502
-36.3485
-36.3492
-36.3526
-36.3586
-36.367
-36.378
-36.3919
-36.4081
-36.4266
-36.4471
-36.4693
-36.4928
-36.5173
-36.5424
-36.568
-36.5934
-36.6179
-36.6415
-36.6637
-36.6843
-36.7027
-36.7188
-36.7325
-36.7433
-36.751
-36.7555
-36.7568
-36.7546
-36.7495
-36.7411
-36.729
-36.7136
-36.695
-36.6731
-36.6474
-36.6185
-36.5868
-36.5517
-36.5133
-36.4713
-36.4257
-36.3763
-36.3231
-36.2657
-36.2038
-36.1375
-36.0662
-35.99
-35.9087
-35.8224
-35.7313
-35.6353
-35.5343
-35.4288
-35.3193
-35.2059
-35.0892
-34.9696
-34.8484
-34.7256
-34.6016
-34.4775
-34.3538
-34.2314
-34.1109
-33.993
-33.8784
-33.7674
-33.66
-33.5566
-33.4575
-33.3627
-33.2719
-33.1849
-33.1016
-33.0212
-32.9435
-32.8674
-32.792
-32.7165
-32.6404
-32.5624
-32.4814
-32.3969
-32.3086
-32.2151
-32.1159
-32.0104
-31.8981
-31.7786
-31.6516
-31.5169
-31.3746
-31.2247
-31.0678
-30.9038
-30.7331
-30.5562
-30.3739
-30.1866
-29.9952
-29.8004
-29.6033
-29.4043
-29.2041
-29.0035
-28.803
-28.6037
-28.406
-28.2108
-28.019
-27.8308
-27.6466
-27.4668
-27.2916
-27.1216
-26.9573
-26.7986
-26.6457
-26.4987
-26.3574
-26.2219
-26.0921
-25.9678
-25.8486
-25.7342
-25.6246
-25.5192
-25.4175
-25.3192
-25.2237
-25.1305
-25.0392
-24.9491
-24.8596
-24.77
-24.6795
-24.5878
-24.4948
-24.3995
-24.3015
-24.2002
-24.0953
-23.9865
-23.8738
-23.7568
-23.6353
-23.5094
-23.3787
-23.2438
-23.1049
-22.962
-22.8154
-22.6656
-22.5126
-22.3573
-22.1999
-22.0411
-21.8814
-21.7215
-21.5618
-21.4029
-21.2456
-21.09
-20.9366
-20.7857
-20.6377
-20.4929
-20.3515
-20.2138
-20.0796
-19.9491
-19.822
-19.6986
-19.5788
-19.4622
-19.3489
-19.2383
-19.1296
-19.0228
-18.9174
-18.8132
-18.7096
-18.6066
-18.5039
-18.401
-18.2974
-18.1931
-18.0875
-17.9809
-17.8729
-17.7638
-17.6534
-17.5421
-17.4296
-17.3164
-17.2025
-17.0883
-16.9745
-16.8611
-16.7482
-16.6366
-16.5262
-16.4178
-16.3117
-16.2083
-16.1082
-16.0117
-15.9189
-15.8303
-15.7463
-15.6672
-15.5929
-15.524
-15.4607
-15.4031
-15.3511
-15.3051
-15.2647
-15.2307
-15.2034
-15.1826
-15.1676
-15.1591
-15.1572
-15.162
-15.1734
-15.1915
-15.2165
-15.2483
-15.2866
-15.3318
-15.3836
-15.4424
-15.5081
-15.5807
-15.6604
-15.7469
-15.8391
-15.9378
-16.0429
-16.154
-16.2708
-16.3933
-16.5208
-16.6534
-16.7905
-16.9319
-17.0772
-17.2263
-17.3785
-17.5339
-17.6922
-17.8529
-18.0155
-18.18
-18.3463
-18.514
-18.6826
-18.8524
-19.0229
-19.1944
-19.3666
-19.5396
-19.714
-19.8892
-20.0643
-20.2403
-20.417
-20.5947
-20.7735
-20.9534
-21.134
-21.3157
-21.498
-21.6815
-21.8668
-22.0531
-22.2401
-22.4282
-22.6172
-22.8071
-22.9984
-23.1905
-23.3832
-23.5766
-23.7709
-23.9655
-24.1604
-24.3554
-24.5504
-24.7452
-24.9398
-25.1339
-25.3272
-25.5196
-25.711
-25.9012
-26.09
-26.2772
-26.4632
-26.6472
-26.8292
-27.0091
-27.1865
-27.3616
-27.5348
-27.7055
-27.8742
-28.0406
-28.2051
-28.3673
-28.527
-28.6847
-28.8404
-28.9945
-29.1473
-29.2989
-29.4497
-29.5997
-29.7489
-29.8979
-30.0472
-30.1967
-30.3468
-30.4976
-30.6489
-30.8013
-30.9551
-31.1102
-31.2665
-31.424
-31.5832
-31.7433
-31.904
-32.0652
-32.2266
-32.3876
-32.5481
-32.7073
-32.8648
-33.02
-33.1721
-33.3204
-33.4645
-33.6036
-33.7375
-33.8654
-33.9865
-34.1006
-34.2077
-34.3072
-34.3989
-34.4827
-34.5589
-34.6273
-34.688
-34.7414
-34.7883
-34.8287
-34.8633
-34.8926
-34.9172
-34.9376
-34.9539
-34.9671
-34.9785
-34.9878
-34.9952
-35.0014
-35.0069
-35.0117
-35.0156
-35.0189
-35.0219
-35.0242
-35.0258
-35.0262
-35.0252
-35.0225
-35.0171
-35.0091
-34.9983
-34.9842
-34.9664
-34.9447
-34.9188
-34.8885
-34.8539
-34.8145
-34.7706
-34.722
-34.6685
-34.6105
-34.5487
-34.4827
-34.413
-34.3398
-34.2634
-34.1838
-34.1017
-34.017
-33.9296
-33.8401
-33.7486
-33.6551
-33.56
-33.463
-33.3646
-33.2644
-33.1625
-33.0589
-32.954
-32.8476
-32.7395
-32.6302
-32.5202
-32.4094
-32.2979
-32.1863
-32.0747
-31.9636
-31.854
-31.7457
-31.639
-31.5346
-31.4328
-31.334
-31.2388
-31.147
-31.059
-30.9748
-30.8945
-30.8179
-30.7449
-30.6751
-30.6081
-30.5434
-30.4805
-30.4186
-30.3575
-30.2962
-30.2342
-30.1707
-30.1052
-30.0368
-29.965
-29.8891
-29.8096
-29.7254
-29.6359
-29.5414
-29.4423
-29.3383
-29.2298
-29.1172
-29.0006
-28.8808
-28.7587
-28.6346
-28.5089
-28.3826
-28.2565
-28.1313
-28.0077
-27.8861
-27.7674
-27.6517
-27.539
-27.4301
-27.3256
-27.2253
-27.1295
-27.038
-26.9507
-26.8673
-26.7873
-26.7105
-26.6364
-26.5644
-26.4939
-26.4244
-26.3553
-26.2858
-26.2157
-26.1439
-26.0698
-25.9928
-25.913
-25.8292
-25.7409
-25.6479
-25.5502
-25.4474
-25.339
-25.2248
-25.105
-24.9793
-24.848
-24.7111
-24.5689
-24.4215
-24.2696
-24.1129
-23.952
-23.787
-23.6184
-23.4465
-23.2722
-23.0954
-22.9163
-22.7354
-22.5528
-22.3689
-22.1842
-21.9986
-21.8124
-21.6255
-21.438
-21.25
-21.0614
-20.8719
-20.6818
-20.4905
-20.298
-20.1039
-19.9077
-19.7091
-19.5078
-19.3035
-19.0967
-18.8863
-18.672
-18.4534
-18.2306
-18.0029
-17.7702
-17.5322
-17.289
-17.04
-16.7854
-16.5247
-16.2581
-15.9852
-15.7057
-15.4199
-15.1286
-14.8309
-14.5268
-14.2165
-13.8997
-13.5766
-13.2476
-12.9123
-12.5708
-12.223
-11.8689
-11.5086
-11.1424
-10.7702
-10.3919
-10.0077
-9.6175
-9.22143
-8.81937
-8.41172
-7.99903
-7.58106
-7.15813
-6.73041
-6.29832
-5.86203
-5.4218
-4.9781
-4.53119
-4.08185
-3.63099
-3.17869
-2.72583
-2.27284
-1.82006
-1.36849
-0.918942
-0.472109
-0.0291384
0.409746
0.843939
1.27271
1.6955
2.11156
2.52022
2.92114
3.314
3.69839
4.07411
4.44099
4.79829
5.14659
5.48665
5.81799
6.14055
6.45513
6.7624
7.06281
7.3572
7.64596
7.92994
8.20985
8.48641
8.76056
9.03368
9.30604
9.5785
9.85172
10.1264
10.4033
10.6831
10.9663
11.2535
11.5449
11.8408
12.1415
12.4478
12.759
13.0752
13.3964
13.7226
14.0534
14.3886
14.7279
15.0715
15.4187
15.7693
16.1228
16.4787
16.8364
17.1963
17.5571
17.9187
18.2803
18.6415
19.0016
19.3603
19.7168
20.0707
20.4212
20.7675
21.109
21.4452
21.7752
22.0988
22.4146
22.7219
23.0197
23.3077
23.5848
23.8502
24.1034
24.3439
24.5711
24.7849
24.9844
25.1691
25.339
25.4941
25.6341
25.7595
25.8701
25.9662
26.0481
26.1157
26.1699
26.2109
26.2395
26.2569
26.2633
26.2595
26.246
26.224
26.194
26.1565
26.1124
26.0624
26.0071
25.947
25.8827
25.815
25.7442
25.6711
25.5959
25.5192
25.4412
25.3619
25.2819
25.202
25.1223
25.0429
24.9643
24.8867
24.8105
24.7363
24.6638
24.5932
24.5247
24.4591
24.3961
24.336
24.2787
24.2243
24.1729
24.1245
24.0791
24.0372
23.9983
23.9621
23.9287
23.8979
23.8695
23.8437
23.82
23.7986
23.7792
23.7617
23.7462
23.7326
23.7209
23.7112
23.7035
23.6986
23.6963
23.6973
23.7015
23.709
23.7202
23.7356
23.7554
23.7804
23.8106
23.846
23.8869
23.9337
23.9864
24.0453
24.1102
24.1813
24.2583
24.3409
24.4286
24.5215
24.6189
24.7202
24.8251
24.9331
25.0436
25.1562
25.2702
25.3855
25.5011
25.6168
25.7321
25.8472
25.9614
26.0748
26.1869
26.2975
26.4067
26.5148
26.6215
26.7269
26.8312
26.9349
27.0377
27.14
27.2415
27.3426
27.4428
27.5424
27.6407
27.7371
27.8314
27.9231
28.0114
28.0961
28.1758
28.2502
28.3177
28.3776
28.4286
28.4697
28.4996
28.5181
28.5234
28.5146
28.4907
28.4512
28.3953
28.323
28.2333
28.1267
28.0025
27.8612
27.7026
27.5274
27.3359
27.1293
26.9079
26.6724
26.424
26.1636
25.8923
25.611
25.3207
25.0227
24.7174
24.4059
24.0886
23.7655
23.4376
23.105
22.7678
22.4259
22.0791
21.7267
21.3683
21.0031
20.6303
20.2492
19.8583
19.456
19.0416
18.6134
18.1706
17.712
17.2363
16.742
16.2287
15.6962
15.1431
14.5686
13.973
13.3563
12.7188
12.0616
11.3853
10.6906
9.97944
9.25385
8.51574
7.7676
7.01209
6.25249
5.49176
4.73358
3.98138
3.23883
2.50991
1.79874
1.10918
0.445008
-0.189779
-0.791298
-1.35614
-1.88072
-2.36212
-2.79768
-3.1849
-3.52179
-3.80672
-4.03832
-4.21622
-4.3405
-4.41135
-4.42966
-4.39677
-4.31485
-4.18594
-4.01289
-3.79874
-3.54715
-3.26184
-2.94697
-2.60673
-2.24582
-1.8685
-1.47941
-1.08293
-0.683263
-0.284807
0.108116
0.491837
0.862234
1.21675
1.5525
1.86704
2.15775
2.42344
2.66294
2.87521
3.05951
3.21565
3.34345
3.4436
3.51653
3.56338
3.5845
3.58192
3.5568
3.51101
3.44573
3.36305
3.26424
3.15126
3.02548
2.88873
2.7423
2.58786
2.42624
2.25924
2.08795
1.91355
1.73682
1.559
1.38057
1.20282
1.02602
0.851313
0.679103
0.510269
0.345447
0.1851
0.0297064
-0.120097
-0.264296
-0.401984
-0.532683
-0.655933
-0.771296
-0.878259
-0.976319
-1.06527
-1.14461
-1.21424
-1.27406
-1.32365
-1.36215
-1.39012
-1.40731
-1.41394
-1.40999
-1.39567
-1.37085
-1.33621
-1.29188
-1.23857
-1.17706
-1.10772
-1.03107
-0.948034
-0.859079
-0.765435
-0.66805
-0.56781
-0.464928
-0.361084
-0.258007
-0.15597
-0.0554691
0.0422044
0.13623
0.225719
0.309756
0.38772
0.45905
0.523245
0.579622
0.628005
0.66807
0.699711
0.722934
0.737651
0.743955
0.742116
0.732429
0.715284
0.690946
0.66016
0.623614
0.581729
0.53475
0.483729
0.429248
0.372093
0.313131
0.252736
0.191745
0.13043
0.0687934
0.0077922
-0.0525109
-0.111389
-0.168586
-0.223833
-0.276768
-0.32752
-0.376207
-0.422604
-0.466636
-0.508544
-0.548346
-0.586267
-0.622741
-0.657584
-0.690782
-0.722755
-0.753675
-0.783736
-0.813378
-0.842553
-0.871029
-0.899238
-0.927527
-0.955699
-0.983401
-1.0111
-1.03878
-1.06651
-1.09462
-1.12278
-1.15066
-1.17855
-1.20661
-1.23445
-1.26154
-1.28821
-1.31408
-1.33927
-1.36339
-1.38655
-1.40897
-1.43015
-1.45018
-1.46867
-1.48538
-1.50036
-1.51329
-1.52437
-1.53407
-1.54181
-1.5475
-1.5512
-1.5527
-1.5522
-1.54962
-1.54524
-1.53939
-1.53197
-1.52321
-1.51335
-1.50269
-1.49134
-1.47936
-1.46729
-1.4555
-1.44423
-1.43371
-1.42424
-1.4162
-1.40987
-1.40593
-1.40421
-1.40471
-1.40773
-1.4137
-1.42242
-1.43406
-1.44837
-1.46459
-1.48325
-1.50466
-1.52797
-1.55269
-1.57869
-1.60543
-1.63263
-1.65989
-1.68681
-1.71327
-1.73867
-1.76278
-1.78514
-1.80541
-1.8236
-1.83958
-1.85316
-1.8641
-1.87273
-1.87941
-1.88399
-1.88672
-1.88779
-1.88724
-1.88551
-1.88294
-1.87972
-1.87608
-1.87228
-1.86873
-1.86536
-1.86199
-1.85899
-1.85643
-1.85416
-1.85186
-1.84953
-1.84721
-1.84448
-1.84107
-1.83662
-1.83065
-1.82305
-1.81345
-1.80185
-1.78857
-1.77293
-1.75455
-1.73362
-1.70988
-1.68362
-1.65471
-1.62367
-1.59128
-1.55733
-1.522
-1.48581
-1.44941
-1.41308
-1.37751
-1.34284
-1.3091
-1.27704
-1.24732
-1.21999
-1.19495
-1.17288
-1.15398
-1.13835
-1.12626
-1.11748
-1.11149
-1.10871
-1.10952
-1.1133
-1.11999
-1.12936
-1.14117
-1.15532
-1.17168
-1.19014
-1.21036
-1.23226
-1.25579
-1.28081
-1.30726
-1.33495
-1.36397
-1.39396
-1.4243
-1.45534
-1.48685
-1.51862
-1.5505
-1.58231
-1.61415
-1.64551
-1.67565
-1.70479
-1.7327
-1.75912
-1.78388
-1.80664
-1.82727
-1.84559
-1.8615
-1.87479
-1.88565
-1.8939
-1.89936
-1.90231
-1.90312
-1.90178
-1.89871
-1.89389
-1.8872
-1.87937
-1.87075
-1.86172
-1.85238
-1.84325
-1.83474
-1.82703
-1.82043
-1.81516
-1.81126
-1.80908
-1.80927
-1.81158
-1.81548
-1.82166
-1.83039
-1.8415
-1.85496
-1.87075
-1.88891
-1.90927
-1.93175
-1.95623
-1.98236
-2.01018
-2.03989
-2.07105
-2.10325
-2.13642
-2.17068
-2.2055
-2.24053
-2.27551
-2.31026
-2.34439
-2.37734
-2.4091
-2.43933
-2.46773
-2.49409
-2.51807
-2.53963
-2.5583
-2.5742
-2.58696
-2.59635
-2.60251
-2.60531
-2.60505
-2.60215
-2.59655
-2.58802
-2.57743
-2.56528
-2.55191
-2.53849
-2.52486
-2.51127
-2.49843
-2.48692
-2.47715
-2.46971
-2.46477
-2.4627
-2.46376
-2.46772
-2.47501
-2.48566
-2.49949
-2.51633
-2.53589
-2.55775
-2.58147
-2.60664
-2.63267
-2.65871
-2.6845
-2.71017
-2.73449
-2.75719
-2.77747
-2.79459
-2.80842
-2.81888
-2.82553
-2.82802
-2.82633
-2.82049
-2.8105
-2.79651
-2.77867
-2.7575
-2.73309
-2.70563
-2.67562
-2.64365
-2.60997
-2.57493
-2.53898
-2.50233
-2.46549
-2.42925
-2.39348
-2.35817
-2.32373
-2.29066
-2.25871
-2.22816
-2.19869
-2.17046
-2.14314
-2.11628
-2.08994
-2.06389
-2.03767
-2.01111
-1.98367
-1.95467
-1.92394
-1.89135
-1.85619
-1.81824
-1.77694
-1.73197
-1.68302
-1.62946
-1.57143
-1.50905
-1.44201
-1.37072
-1.29477
-1.21403
-1.12894
-1.03955
-0.946263
-0.849509
-0.749468
-0.646695
-0.541378
-0.433969
-0.324863
-0.214657
-0.103608
0.00770103
0.119211
0.23054
0.341596
0.45241
0.562636
0.672062
0.780906
0.88923
0.997167
1.10459
1.21206
1.31991
1.42836
1.53794
1.64866
1.76081
1.87474
1.99056
2.10863
2.22888
2.3516
2.47715
2.60513
2.73547
2.86803
3.00272
3.13928
3.27719
3.41637
3.55621
3.69662
3.8371
3.9774
4.1175
4.25685
4.39495
4.5318
4.66737
4.80147
4.93416
5.0655
5.19569
5.32478
5.45275
5.58013
5.70745
5.83473
5.962
6.0897
6.21781
6.34678
6.47687
6.60807
6.74041
6.87384
7.00847
7.14392
7.28003
7.41639
7.55222
7.68755
7.82228
7.95568
8.08777
8.21766
8.34479
8.469
8.5898
8.70718
8.82099
8.9312
9.0381
9.14146
9.24127
9.33802
9.43223
9.52409
9.61392
9.70242
9.79016
9.87766
9.96552
10.0542
10.144
10.2356
10.3298
10.4266
10.5263
10.629
10.7351
10.8443
10.9566
11.0718
11.1897
11.3098
11.4313
11.5542
11.678
11.8023
11.9265
12.05
12.1721
12.2924
12.4104
12.5256
12.6376
12.7461
12.8508
12.9516
13.0481
13.1404
13.2285
13.3123
13.3921
13.4681
13.5403
13.6089
13.6742
13.7365
13.7962
13.8536
13.9098
13.9642
14.017
14.0688
14.12
14.1707
14.2209
14.2711
14.3219
14.3732
14.425
14.4777
14.5316
14.5868
14.6433
14.7013
14.7612
14.8228
14.8862
14.9514
15.0181
15.0865
15.157
15.2293
15.3036
15.3794
15.4568
15.5353
15.6144
15.6941
15.7742
15.8543
15.9344
16.0138
16.0926
16.1698
16.245
16.318
16.3884
16.4558
16.5198
16.5801
16.6366
16.6887
16.7362
16.7789
16.8173
16.8508
16.8796
16.9037
16.9234
16.9388
16.9499
16.9571
16.9607
16.9609
16.9584
16.9534
16.9464
16.9378
16.9281
16.9176
16.9067
16.8959
16.8857
16.8763
16.8683
16.8619
16.8571
16.8543
16.8537
16.8554
16.8596
16.8665
16.8765
16.8892
16.9048
16.9229
16.9432
16.9656
16.9903
17.0167
17.0444
17.0731
17.1027
17.1328
17.163
17.193
17.2224
17.2507
17.2778
17.3032
17.3267
17.348
17.3667
17.3828
17.3961
17.4065
17.414
17.4187
17.421
17.4205
17.4174
17.4121
17.4049
17.396
17.3855
17.3738
17.3608
17.3473
17.3336
17.3197
17.306
17.2927
17.28
17.2679
17.2566
17.2462
17.2369
17.2288
17.2219
17.2162
17.2117
17.2082
17.2057
17.2044
17.2044
17.2055
17.2068
17.2092
17.2132
17.2182
17.2243
17.2313
17.2398
17.2492
17.2596
17.2709
17.2829
17.2954
17.3081
17.321
17.3337
17.3461
17.3578
17.3684
17.3774
17.3846
17.3896
17.392
17.3919
17.3883
17.3809
17.3695
17.3537
17.3337
17.3101
17.2822
17.2501
17.2142
17.1748
17.1322
17.0869
17.0393
16.9902
16.9402
16.8898
16.8396
16.7903
16.7425
16.6963
16.6526
16.6118
16.5743
16.5405
16.5104
16.4838
16.461
16.4421
16.4266
16.4139
16.404
16.3961
16.3902
16.3858
16.3823
16.3792
16.3759
16.3719
16.3666
16.3596
16.3505
16.3391
16.325
16.3082
16.2885
16.266
16.2408
16.2131
16.1829
16.1508
16.1169
16.0813
16.0444
16.0066
15.9684
15.9299
15.8916
15.8537
15.8167
15.7809
15.7465
15.7139
15.6829
15.6536
15.6262
15.6008
15.5774
15.5566
15.5377
15.5205
15.5052
15.4917
15.4799
15.4693
15.4603
15.4529
15.4468
15.4414
15.4366
15.4324
15.4287
15.4252
15.4217
15.4179
15.4137
15.4092
15.4041
15.3977
15.3903
15.3823
15.3731
15.3626
15.3508
15.3379
15.3237
15.3078
15.2908
15.273
15.2541
15.2338
15.2128
15.1915
15.1699
15.1481
15.1263
15.1055
15.0851
15.0649
15.0454
15.0267
15.0087
14.9914
14.9751
14.9597
14.945
14.9308
14.9171
14.9039
14.8907
14.8772
14.8633
14.8487
14.8332
14.8166
14.7987
14.7794
14.7585
14.7354
14.7103
14.6835
14.6548
14.6246
14.5927
14.5586
14.5229
14.4861
14.4482
14.4094
14.3699
14.3297
14.2892
14.249
14.2088
14.1686
14.1287
14.0891
14.05
14.0113
13.973
13.9354
13.8981
13.8605
13.8229
13.7852
13.747
13.7076
13.6674
13.6268
13.5851
13.5429
13.4994
13.4544
13.4082
13.361
13.3125
13.2624
13.2114
13.1599
13.1077
13.0551
13.0022
12.9493
12.8966
12.8445
12.7931
12.7425
12.6928
12.6441
12.5966
12.5502
12.5049
12.4606
12.4173
12.3752
12.334
12.2935
12.2535
12.2137
12.174
12.1341
12.094
12.0536
12.0125
11.9708
11.9279
11.8838
11.8382
11.791
11.7423
11.6916
11.6392
11.5854
11.5297
11.4722
11.413
11.3514
11.288
11.2234
11.1572
11.0895
11.0202
10.9493
10.8771
10.8037
10.7293
10.6545
10.579
10.5029
10.4264
10.35
10.2737
10.1979
10.1228
10.049
9.97665
9.90571
9.8367
9.7702
9.70625
9.64503
9.58688
9.53201
9.48059
9.43262
9.3882
9.34737
9.31017
9.27629
9.24577
9.21867
9.19452
9.1727
9.15308
9.1354
9.11902
9.10348
9.0882
9.07292
9.05687
9.03944
9.02017
8.99857
8.97411
8.94629
8.91476
8.87912
8.83909
8.79428
8.74472
8.69026
8.63084
8.56672
8.49783
8.42468
8.34711
8.26523
8.1796
8.09058
7.99865
7.90373
7.80683
7.70893
7.61006
7.51088
7.41166
7.31285
7.21492
7.11787
7.02249
6.92911
6.83803
6.74987
6.66436
6.58184
6.50238
6.42562
6.35195
6.28129
6.21355
6.14902
6.08715
6.02724
5.9695
5.91395
5.86025
5.80825
5.75742
5.70715
5.65757
5.60861
5.55974
5.51065
5.46114
5.41088
5.35976
5.30748
5.25399
5.19937
5.14324
5.08571
5.02655
4.96549
4.90268
4.83847
4.7725
4.70473
4.63523
4.56377
4.49074
4.41639
4.34055
4.26318
4.18436
4.1036
4.02152
3.93854
3.85442
3.76967
3.68395
3.59728
3.50984
3.42174
3.33302
3.24374
3.15419
3.06444
2.97464
2.88464
2.79492
2.70586
2.61751
2.53021
2.44396
2.35866
2.27479
2.19259
2.11219
2.03373
1.95745
1.88348
1.81204
1.74353
1.67782
1.6147
1.5546
1.49757
1.44368
1.39333
1.34606
1.30176
1.26042
1.22139
1.18504
1.15162
1.1205
1.09167
1.06453
1.0385
1.01359
0.989379
0.965567
0.941564
0.91721
0.892467
0.866547
0.838889
0.809465
0.778128
0.744484
0.708478
0.669751
0.627964
0.583323
0.536156
0.486072
0.433227
0.377748
0.319331
0.258684
0.196208
0.132002
0.0661243
-0.000951102
-0.0689449
-0.137365
-0.20587
-0.274108
-0.341185
-0.407385
-0.472949
-0.537115
-0.599727
-0.660671
-0.719921
-0.777309
-0.83255
-0.885936
-0.937546
-0.987521
-1.03641
-1.08419
-1.13103
-1.17719
-1.22264
-1.26806
-1.31404
-1.36072
-1.40838
-1.45747
-1.5083
-1.5611
-1.61606
-1.67331
-1.73335
-1.79602
-1.86085
-1.92823
-1.99832
-2.07076
-2.1452
-2.22155
-2.29967
-2.37899
-2.45902
-2.53941
-2.61978
-2.69973
-2.77876
-2.85651
-2.93261
-3.00665
-3.07877
-3.14821
-3.21461
-3.27797
-3.33754
-3.39392
-3.44738
-3.49784
-3.54619
-3.59188
-3.63489
-3.67581
-3.71496
-3.75288
-3.79023
-3.82727
-3.86437
-3.90206
-3.94103
-3.98146
-4.02344
-4.06755
-4.11417
-4.1635
-4.21598
-4.27135
-4.32943
-4.39048
-4.45468
-4.5217
-4.59152
-4.66367
-4.73782
-4.81377
-4.89132
-4.96987
-5.04874
-5.12785
-5.20701
-5.28561
-5.36317
-5.43928
-5.51361
-5.58573
-5.65583
-5.72313
-5.78714
-5.84787
-5.90505
-5.95848
-6.00822
-6.054
-6.09616
-6.13431
-6.16831
-6.19819
-6.22373
-6.24527
-6.26308
-6.27701
-6.28769
-6.29484
-6.29824
-6.2984
-6.29576
-6.29026
-6.28254
-6.27235
-6.2594
-6.24437
-6.22789
-6.20978
-6.19028
-6.1694
-6.14696
-6.1233
-6.09894
-6.07345
-6.04686
-6.01919
-5.99029
-5.96005
-5.92841
-5.89509
-5.86034
-5.82352
-5.7841
-5.74203
-5.69733
-5.64951
-5.59822
-5.54331
-5.48509
-5.42278
-5.35604
-5.28502
-5.20968
-5.13013
-5.04634
-4.95845
-4.86703
-4.77194
-4.67375
-4.57245
-4.46824
-4.36189
-4.25423
-4.14522
-4.03506
-3.9244
-3.81402
-3.70395
-3.59459
-3.48621
-3.37885
-3.27294
-3.169
-3.06666
-2.96584
-2.86641
-2.76798
-2.67065
-2.57468
-2.47925
-2.38401
-2.28863
-2.19269
-2.09588
-1.99779
-1.89801
-1.79614
-1.69207
-1.58604
-1.47739
-1.36597
-1.25168
-1.13389
-1.01311
-0.889184
-0.762504
-0.633634
-0.502383
-0.36919
-0.234032
-0.0971644
0.0411083
0.18056
0.320879
0.46159
0.602729
0.743963
0.885222
1.02684
1.16829
1.30924
1.44986
1.58994
1.72969
1.86957
2.00913
2.14801
2.28656
2.42504
2.56319
2.70072
2.8377
2.97404
3.10953
3.24403
3.37732
3.50928
3.6395
3.76768
3.89357
4.01684
4.13712
4.25423
4.3679
4.47807
4.58435
4.6865
4.78459
4.87861
4.96868
5.05488
5.1373
5.21604
5.29165
5.36466
5.43519
5.50352
5.57019
5.63584
5.70075
5.76561
5.83066
5.89587
5.962
6.02953
6.09851
6.16952
6.24236
6.3169
6.39341
6.47214
6.55277
6.63495
6.71864
6.80387
6.8902
6.9775
7.06542
7.15385
7.24238
7.33098
7.4192
7.50672
7.59357
7.67955
7.76466
7.84923
7.93298
8.01571
8.09764
8.17861
8.25891
8.33896
8.41858
8.49808
8.57738
8.65671
8.73608
8.81491
8.89367
8.97256
9.05138
9.1301
9.20843
9.28636
9.36351
9.43983
9.51469
9.5873
9.65774
9.72609
9.79148
9.85361
9.91209
9.96645
10.0164
10.0618
10.1024
10.1374
10.1672
10.1915
10.2104
10.2241
10.2326
10.2359
10.2345
10.2294
10.2204
10.2081
10.1932
10.1759
10.1573
10.1381
10.1188
10.1006
10.0838
10.0697
10.0585
10.0505
10.0467
10.0478
10.054
10.0659
10.0834
10.1065
10.1354
10.17
10.21
10.2553
10.3053
10.3598
10.4181
10.4791
10.5424
10.6074
10.6732
10.739
10.804
10.8673
10.9283
10.9861
11.0401
11.0901
11.1353
11.1752
11.2095
11.2384
11.2613
11.2781
11.2891
11.2944
11.2943
11.2893
11.2797
11.2658
11.2484
11.2284
11.2062
11.1821
11.157
11.1321
11.1076
11.0838
11.0616
11.0414
11.0238
11.0088
10.9972
10.9893
10.9851
10.9847
10.9882
10.995
11.0054
11.0193
11.0363
11.0563
11.0787
11.103
11.1287
11.1553
11.1822
11.2091
11.2353
11.2604
11.2838
11.3051
11.3238
11.3394
11.3517
11.3605
11.3657
11.3672
11.3648
11.3591
11.3496
11.3367
11.3205
11.3014
11.2797
11.2557
11.2301
11.2031
11.1756
11.1481
11.1212
11.0954
11.0711
11.0494
11.0302
11.0139
11.0007
10.9909
10.9849
10.9822
10.9834
10.9884
10.9971
11.0095
11.0249
11.0431
11.0636
11.086
11.1097
11.1343
11.1593
11.1842
11.2084
11.2315
11.2529
11.2728
11.2902
11.3048
11.3164
11.3242
11.3284
11.3289
11.3256
11.3186
11.3078
11.2932
11.275
11.2538
11.2293
11.2017
11.1715
11.1393
11.1052
11.0692
11.0318
10.9933
10.9541
10.9147
10.8752
10.836
10.7973
10.759
10.7217
10.6855
10.6506
10.6171
10.5851
10.555
10.5265
10.4995
10.4741
10.4504
10.4283
10.4076
10.3884
10.3705
10.3537
10.3378
10.3228
10.3086
10.295
10.282
10.2695
10.258
10.2466
10.2348
10.223
10.2112
10.1993
10.1877
10.1759
10.1635
10.1508
10.1377
10.1241
10.1098
10.095
10.0797
10.0637
10.0474
10.0304
10.0122
9.99308
9.97334
9.95277
9.9316
9.90965
9.8867
9.86296
9.83846
9.8133
9.78752
9.76122
9.73451
9.70749
9.68041
9.65314
9.62563
9.59814
9.57087
9.54371
9.51677
9.49002
9.46346
9.43719
9.41119
9.38542
9.35987
9.33438
9.30888
9.28334
9.25749
9.23154
9.20566
9.17956
9.15326
9.12682
9.10056
9.07419
9.0477
9.02129
8.99487
8.96873
8.94295
8.91773
8.89346
8.87009
8.84781
8.82672
8.80733
8.78932
8.77203
8.7561
8.74198
8.72914
8.71725
8.7064
8.69648
8.68719
8.67843
8.66981
8.66109
8.65187
8.64154
8.63
8.61711
8.60234
8.58524
8.56577
8.54386
8.51913
8.49156
8.46102
8.42762
8.39117
8.35124
8.30837
8.26317
8.2153
8.16464
8.11175
8.05713
8.0007
7.94245
7.88291
7.82225
7.76073
7.69858
7.63586
7.57294
7.50981
7.44666
7.3835
7.32037
7.25739
7.19439
7.13156
7.06899
7.00675
6.94478
6.88322
6.82234
6.76193
6.70204
6.64275
6.58436
6.52681
6.47026
6.41477
6.36057
6.30761
6.25554
6.20477
6.15557
6.10784
6.06169
6.01711
5.97356
5.93139
5.89052
5.85097
5.81267
5.7755
5.73978
5.70496
5.67084
5.63739
5.60429
5.57162
5.53944
5.50758
5.47606
5.44472
5.41365
5.38263
5.35144
5.32024
5.289
5.25764
5.22602
5.19413
5.1619
5.12924
5.09596
5.06194
5.02706
4.99132
4.95461
4.91675
4.87755
4.83705
4.79552
4.75268
4.70846
4.66301
4.61643
4.56874
4.52015
4.47083
4.42102
4.3711
4.32136
4.27207
4.22379
4.17672
4.1309
4.08694
4.04522
4.00601
3.96946
3.93592
3.90581
3.87894
3.8551
3.83461
3.81726
3.8031
3.79193
3.78342
3.77744
3.77347
3.77087
3.76939
3.76854
3.76792
3.76699
3.76526
3.76227
3.75749
3.75074
3.74118
3.728
3.7113
3.69063
3.66572
3.63663
3.60288
3.56412
3.52044
3.47196
3.41856
3.3601
3.29689
3.22928
3.15734
3.08106
3.001
2.91802
2.83203
2.74331
2.65243
2.56019
2.46687
2.37298
2.27915
2.18556
2.0932
2.00274
1.91473
1.82968
1.74822
1.67118
1.59879
1.53126
1.46933
1.41364
1.3643
1.32158
1.28568
1.25653
1.23424
1.21875
1.20985
1.20722
1.21055
1.21925
1.23292
1.25072
1.27212
1.29644
1.32267
1.34998
1.37744
1.40433
1.42957
1.45224
1.4715
1.48699
1.49753
1.50216
1.50067
1.49258
1.47743
1.45495
1.42506
1.38785
1.34333
1.29182
1.23363
1.16912
1.09894
1.02354
0.943844
0.860829
0.775189
0.687982
0.599872
0.511721
0.424449
0.338833
0.255752
0.175724
0.099569
0.0280803
-0.0384308
-0.0997653
-0.155548
-0.205564
-0.249817
-0.288463
-0.321597
-0.349241
-0.372037
-0.390962
-0.406026
-0.418046
-0.427355
-0.433987
-0.439273
-0.444
-0.448812
-0.454512
-0.461524
-0.47047
-0.481822
-0.495958
-0.513375
-0.534346
-0.559169
-0.588351
-0.621719
-0.659027
-0.700434
-0.745418
-0.794242
-0.847146
-0.903392
-0.962742
-1.02475
-1.08908
-1.15526
-1.22238
-1.29053
-1.35937
-1.42845
-1.49752
-1.56606
-1.634
-1.70093
-1.76615
-1.8298
-1.89196
-1.95227
-2.01053
-2.06686
-2.12144
-2.17407
-2.22486
-2.27383
-2.3211
-2.36673
-2.41082
-2.45354
-2.49505
-2.53544
-2.57499
-2.61373
-2.65192
-2.68951
-2.72684
-2.76366
-2.79956
-2.83507
-2.87021
-2.90488
-2.9392
-2.97293
-3.00571
-3.0379
-3.06975
-3.10096
-3.13143
-3.16112
-3.18986
-3.21787
-3.24527
-3.27195
-3.29815
-3.32378
-3.34898
-3.37379
-3.3983
-3.42257
-3.44631
-3.46998
-3.4936
-3.51727
-3.54178
-3.56631
-3.59065
-3.61495
-3.63913
-3.66311
-3.68679
-3.70996
-3.73258
-3.75439
-3.77502
-3.7943
-3.81213
-3.82832
-3.84289
-3.85541
-3.86565
-3.87367
-3.87956
-3.88312
-3.88441
-3.88345
-3.88038
-3.87532
-3.86864
-3.86034
-3.85097
-3.84053
-3.8292
-3.81738
-3.80527
-3.79322
-3.78174
-3.77076
-3.76026
-3.75064
-3.74253
-3.73538
-3.72897
-3.72356
-3.71933
-3.71585
-3.71324
-3.71104
-3.70895
-3.70669
-3.70397
-3.70041
-3.69611
-3.69047
-3.68338
-3.67444
-3.66318
-3.64957
-3.63343
-3.61458
-3.593
-3.56856
-3.54138
-3.51126
-3.47825
-3.44238
-3.40394
-3.36274
-3.31931
-3.27333
-3.22447
-3.17323
-3.11951
-3.06349
-3.0055
-2.94509
-2.88248
-2.81736
-2.74959
-2.679
-2.60543
-2.52857
-2.4484
-2.36455
-2.2768
-2.18491
-2.08864
-1.98781
-1.88265
-1.77266
-1.65775
-1.53779
-1.41264
-1.2825
-1.14755
-1.00783
-0.863558
-0.714991
-0.562239
-0.405872
-0.246541
-0.0843684
0.0802773
0.24687
0.414987
0.584234
0.753681
0.923316
1.09288
1.26196
1.43042
1.59785
1.76366
1.92799
2.09065
2.25175
2.41152
2.56985
2.72639
2.88182
3.03655
3.19064
3.34444
3.49816
3.65188
3.80614
3.96126
4.11748
4.27485
4.43364
4.59392
4.75585
4.91988
5.0857
5.25291
5.42168
5.59178
5.763
5.93509
6.10773
6.28052
6.45312
6.62548
6.79694
6.96669
7.13483
7.30132
7.46565
7.6274
7.78646
7.94247
8.09566
8.24613
8.39378
8.53884
8.68127
8.82147
8.95947
9.09554
9.22995
9.36254
9.49413
9.62525
9.7559
9.88664
10.0174
10.1483
10.2795
10.4116
10.5444
10.6775
10.8113
10.9458
11.0808
11.216
11.3512
11.4864
11.6213
11.7558
11.8894
12.0218
12.1528
12.2822
12.4099
12.5358
12.6598
12.782
12.9023
13.0206
13.1369
13.2514
13.3643
13.4758
13.5859
13.6952
13.8036
13.9115
14.0191
14.126
14.2329
14.3399
14.4471
14.555
14.6632
14.7716
14.8803
14.9892
15.0981
15.2073
15.3162
15.4241
15.5315
15.6382
15.7436
15.8476
15.9499
16.0506
16.1493
16.2457
16.3397
16.4312
16.5202
16.6066
16.6904
16.7718
16.8505
16.9259
16.9988
17.0696
17.1382
17.2048
17.2695
17.3325
17.3942
17.4549
17.5146
17.5738
17.6325
17.691
17.7497
17.809
17.8691
17.9303
17.9928
18.0567
18.1224
18.1903
18.2602
18.3325
18.4072
18.484
18.5633
18.6453
18.7296
18.8162
18.9048
18.9953
19.0874
19.1807
19.275
19.3705
19.4663
19.5622
19.6577
19.7519
19.845
19.9363
20.0257
20.1131
20.1978
20.2795
20.358
20.4333
20.5051
20.5734
20.6378
20.6983
20.7547
20.8076
20.8566
20.9014
20.9423
20.9793
21.0125
21.0416
21.0671
21.089
21.1074
21.1228
21.1348
21.1434
21.1489
21.1512
21.1506
21.1476
21.1422
21.1346
21.1254
21.1148
21.1033
21.091
21.0787
21.0672
21.0566
21.0476
21.0408
21.0369
21.0363
21.0398
21.0478
21.0607
21.0788
21.1026
21.1322
21.1676
21.2089
21.2556
21.308
21.3659
21.4288
21.4959
21.5669
21.6414
21.7184
21.7973
21.8774
21.9581
22.0384
22.1177
22.1953
22.2708
22.3435
22.413
22.4792
22.5424
22.6021
22.6584
22.7114
22.7618
22.8098
22.8557
22.9001
22.9439
22.9874
23.0313
23.0764
23.123
23.1721
23.224
23.2796
23.3394
23.4035
23.472
23.5451
23.6233
23.7063
23.7943
23.8865
23.9822
24.0815
24.1841
24.2892
24.3958
24.5036
24.6122
24.7205
24.8279
24.9337
25.0368
25.137
25.2337
25.3262
25.4138
25.4964
25.5734
25.6449
25.7106
25.7704
25.8248
25.8736
25.9171
25.9555
25.9894
26.019
26.0448
26.0674
26.0881
26.1067
26.1232
26.1389
26.154
26.1695
26.1862
26.2043
26.2245
26.2468
26.2707
26.2969
26.3258
26.3572
26.3907
26.4265
26.4642
26.5036
26.5444
26.586
26.6281
26.6701
26.712
26.7529
26.792
26.829
26.8638
26.8956
26.9241
26.9489
26.9694
26.9859
26.9982
27.006
27.0096
27.0089
27.0035
26.9941
26.9814
26.9652
26.9456
26.9233
26.8989
26.8726
26.8449
26.8163
26.7879
26.7595
26.7318
26.705
26.6794
26.6555
26.6339
26.6147
26.5979
26.5838
26.5723
26.5634
26.5574
26.5538
26.5525
26.5532
26.5558
26.5597
26.5644
26.5696
26.5752
26.5802
26.584
26.5862
26.5864
26.5841
26.5785
26.5696
26.5577
26.5418
26.5212
26.4961
26.4665
26.4324
26.3939
26.3512
26.3042
26.2533
26.1988
26.1412
26.0807
26.0181
25.9546
25.8899
25.8247
25.7595
25.6945
25.6304
25.5674
25.506
25.4468
25.3898
25.3346
25.2817
25.2315
25.1834
25.1371
25.0925
25.0497
25.0079
24.9664
24.9251
24.8835
24.8413
24.7981
24.7533
24.7061
24.6566
24.6048
24.5501
24.4926
24.4322
24.3692
24.3034
24.2346
24.1635
24.0903
24.0154
23.939
23.8619
23.7847
23.7078
23.631
23.5554
23.4818
23.4103
23.3416
23.2759
23.2137
23.1553
23.1008
23.0504
23.0044
22.9631
22.9268
22.8952
22.8687
22.8469
22.8297
22.8172
22.8092
22.8055
22.8055
22.8094
22.8169
22.8278
22.8421
22.8595
22.8796
22.9021
22.9266
22.953
22.9815
23.0112
23.0417
23.0727
23.104
23.1351
23.166
23.1961
23.2251
23.2526
23.2784
23.3023
23.3241
23.3434
23.3603
23.3744
23.385
23.3928
23.3977
23.3998
23.3997
23.3971
23.3921
23.3854
23.3775
23.3689
23.3597
23.3508
23.3429
23.3363
23.3313
23.3286
23.3284
23.3316
23.3386
23.3496
23.3643
23.3831
23.4067
23.4343
23.4657
23.5006
23.5389
23.58
23.6233
23.668
23.7136
23.7593
23.8041
23.8473
23.888
23.9255
23.9592
23.9883
24.0119
24.0296
24.0409
24.0454
24.0425
24.0322
24.0146
23.9896
23.9572
23.9177
23.8716
23.8191
23.7607
23.6969
23.6279
23.5546
23.478
23.3985
23.3168
23.2334
23.1492
23.0644
22.9795
22.8953
22.8122
22.7307
22.6512
22.574
22.4997
22.4284
22.3599
22.2949
22.2336
22.1762
22.1228
22.0735
22.0283
21.9873
21.9506
21.9181
21.8902
21.8665
21.847
21.8315
21.82
21.8123
21.808
21.807
21.8091
21.8138
21.8205
21.8288
21.8383
21.8482
21.8583
21.8679
21.8761
21.8823
21.8856
21.8857
21.8822
21.8746
21.8622
21.8448
21.8224
21.7945
21.7609
21.7216
21.6765
21.6261
21.5707
21.5106
21.4463
21.3782
21.3068
21.2328
21.157
21.0798
21.0019
20.924
20.8471
20.7713
20.6968
20.6244
20.5545
20.4874
20.4231
20.3615
20.3026
20.2464
20.1928
20.1416
20.0922
20.0443
19.9973
19.9507
19.904
19.8567
19.8083
19.7581
19.7057
19.6508
19.5923
19.5303
19.4648
19.3952
19.3218
19.2441
19.1625
19.0766
18.9869
18.8931
18.7953
18.6939
18.5892
18.4816
18.3717
18.2596
18.1456
18.03
17.9133
17.7957
17.6777
17.5594
17.4412
17.3234
17.2056
17.0885
16.973
16.8585
16.7453
16.6333
16.5224
16.413
16.305
16.1985
16.0935
15.9897
15.8868
15.7851
15.6841
15.584
15.4848
15.3861
15.2873
15.1886
15.0894
14.9898
14.8894
14.7881
14.6859
14.5823
14.4774
14.371
14.2624
14.1521
14.04
13.9258
13.8098
13.6917
13.5719
13.4499
13.3252
13.1984
13.0698
12.9391
12.8061
12.671
12.5339
12.3947
12.2532
12.1096
11.964
11.816
11.6655
11.5128
11.3578
11.2007
11.0415
10.8805
10.7176
10.5533
10.3881
10.2221
10.0554
9.88886
9.72359
9.55971
9.39759
9.23821
9.08213
8.93007
8.78275
8.64074
8.50437
8.37447
8.25173
8.1363
8.02816
7.92766
7.83472
7.74938
7.6715
7.60053
7.53574
7.47679
7.42278
7.37317
7.32682
7.28308
7.24118
7.20008
7.1587
7.11637
7.07198
7.02506
6.9748
6.92099
6.86327
6.80139
6.73532
6.66494
6.58966
6.51058
6.42838
6.34346
6.25622
6.16753
6.07794
5.98852
5.9
5.81328
5.729
5.6481
5.57105
5.49876
5.43132
5.36963
5.31385
5.26448
5.22157
5.18538
5.15599
5.1335
5.1178
5.1088
5.10596
5.10955
5.11942
5.13543
5.15719
5.18495
5.21852
5.25807
5.30369
5.35553
5.41323
5.47735
5.54747
5.62453
5.7089
5.80077
5.90015
6.00759
6.12282
6.24655
6.37927
6.52085
6.67116
6.83047
6.99868
7.17575
7.36118
7.55511
7.75732
7.96747
8.18478
8.40918
8.64024
8.87739
9.11979
9.36729
9.61957
9.87585
10.1352
10.3974
10.662
10.9285
11.1965
11.4657
11.7355
12.006
12.2768
12.5477
12.8187
13.0897
13.3601
13.6303
13.9004
14.1703
14.4396
14.7088
14.9778
15.2469
15.516
15.7853
16.0549
16.3251
16.5961
16.8678
17.1402
17.4135
17.688
17.9638
18.2408
18.5191
18.7991
19.0808
19.3638
19.6486
19.935
20.2234
20.514
20.8066
21.1014
21.3983
21.6973
21.9982
22.3011
22.6059
22.912
23.2197
23.5291
23.8397
24.1513
24.4636
24.7765
25.0893
25.4021
25.7141
26.0246
26.3336
26.6404
26.9448
27.2468
27.5454
27.8402
28.1308
28.4166
28.6974
28.9736
29.2444
29.5096
29.7692
30.023
30.2709
30.5133
30.7501
30.9811
31.2068
31.4276
31.6434
31.8549
32.0622
32.2657
32.4656
32.6621
32.8556
33.0463
33.2345
33.4209
33.6051
33.7872
33.9673
34.1456
34.322
34.4967
34.6693
34.8396
35.0075
35.1731
35.3359
35.4961
35.653
35.8062
35.9557
36.102
36.2441
36.3816
36.5145
36.6427
36.7661
36.8848
36.9986
37.1071
37.2105
37.3094
37.4032
37.4922
37.5762
37.6561
37.7314
37.8023
37.8689
37.9315
37.9903
38.0455
38.0973
38.1466
38.193
38.2368
38.2784
38.3183
38.3565
38.3934
38.4293
38.4645
38.4993
38.5348
38.5706
38.6066
38.6433
38.6813
38.7206
38.7618
38.8045
38.8488
38.8947
38.9422
38.9912
39.0424
39.0949
39.1486
39.2029
39.2576
39.312
39.3657
39.4181
39.4687
39.5168
39.5615
39.6024
39.6386
39.6697
39.6954
39.7147
39.7274
39.7328
39.7307
39.7207
39.7026
39.6764
39.6425
39.6006
39.5508
39.4936
39.4297
39.3594
39.2837
39.2028
39.1173
39.0279
38.9354
38.8405
38.7442
38.6469
38.5489
38.4512
38.3548
38.2597
38.1663
38.0751
37.9862
37.8998
37.8164
37.7356
37.6574
37.5817
37.5082
37.4368
37.3675
37.2999
37.2336
37.1684
37.1042
37.0404
36.977
36.9136
36.8498
36.7857
36.7212
36.6561
36.5903
36.5236
36.4565
36.3885
36.3196
36.2501
36.1801
36.1095
36.0388
35.968
35.8972
35.8265
35.7559
35.6856
35.6163
35.5478
35.48
35.4132
35.3475
35.2831
35.2202
35.159
35.0992
35.0414
34.9856
34.932
34.8811
34.8328
34.7871
34.7442
34.7047
34.6682
34.6347
34.6044
34.5773
34.5536
34.5329
34.5154
34.5011
34.4898
34.4814
34.4757
34.4723
34.4712
34.4721
34.4749
34.4791
34.4846
34.491
34.4982
34.5064
34.515
34.5236
34.5326
34.5415
34.5505
34.5598
34.5694
34.5796
34.5903
34.6015
34.6134
34.6266
34.6408
34.6563
34.6732
34.6913
34.7109
34.732
34.7543
34.7779
34.8025
34.8273
34.8526
34.8781
34.9032
34.9278
34.951
34.9722
34.9913
35.0075
35.0207
35.0305
35.0366
35.0385
35.0362
35.0297
35.0189
35.0035
34.9839
34.9605
34.9336
34.9029
34.8696
34.8337
34.7961
34.7573
34.718
34.6789
34.6404
34.6026
34.5664
34.5325
34.5009
34.4721
34.446
34.4227
34.4022
34.3846
34.3696
34.3564
34.3452
34.3356
34.3272
34.3195
34.312
34.3045
34.2962
34.2866
34.2754
34.2621
34.2467
34.229
34.2087
34.1862
34.1613
34.1343
34.1051
34.0737
34.0408
34.0072
33.9729
33.9384
33.9042
33.8707
33.8382
33.8072
33.7779
33.7506
33.7254
33.7024
33.6815
33.6626
33.6455
33.6303
33.6164
33.6034
33.5909
33.5788
33.5664
33.5528
33.5379
33.5214
33.5026
33.4813
33.4571
33.4296
33.3988
33.3644
33.3264
33.285
33.2402
33.1924
33.1415
33.0879
33.032
32.9741
32.9146
32.8539
32.7926
32.7316
32.6707
32.6102
32.5505
32.4915
32.4338
32.3774
32.3225
32.269
32.2168
32.166
32.1161
32.0669
32.0181
31.9696
31.9208
31.8709
31.8197
31.7671
31.7123
31.6548
31.5942
31.5305
31.4632
31.3918
31.3162
31.2358
31.1507
31.0612
30.9667
30.8676
30.7636
30.6546
30.5409
30.4226
30.3001
30.1739
30.044
29.9108
29.7743
29.6346
29.4923
29.3474
29.2004
29.052
28.9021
28.7513
28.5994
28.4466
28.2932
28.14
27.9867
27.8337
27.6808
27.5283
27.3761
27.2244
27.0733
26.9228
26.7731
26.624
26.4757
26.328
26.1809
26.0347
25.8891
25.7439
25.599
25.455
25.3114
25.1679
25.0248
24.8825
24.7405
24.5984
24.4565
24.3149
24.1734
24.032
23.8907
23.7494
23.608
23.4666
23.3249
23.1826
23.0399
22.8972
22.7539
22.6095
22.4642
22.3182
22.1711
22.0227
21.8731
21.722
21.5696
21.4158
21.2604
21.1033
20.9447
20.7849
20.6238
20.4617
20.2987
20.135
19.971
19.8068
19.6427
19.479
19.3161
19.1547
18.9949
18.8369
18.6811
18.5279
18.3776
18.2304
18.0867
17.9466
17.8103
17.6777
17.5491
17.4246
17.3042
17.1875
17.0749
16.9667
16.8623
16.7609
16.6628
16.5678
16.4757
16.3864
16.2997
16.2154
16.133
16.0521
15.9727
15.8944
15.8172
15.7408
15.6651
15.5895
15.5141
15.439
15.3639
15.2881
15.212
15.1355
15.0584
14.9808
14.9023
14.8227
14.7421
14.6607
14.5783
14.4946
14.4098
14.3239
14.237
14.1489
14.06
13.9703
13.8799
13.7891
13.6977
13.6056
13.5132
13.4204
13.3276
13.2352
13.1431
13.0511
12.9594
12.8675
12.7761
12.685
12.5944
12.5041
12.4141
12.3245
12.2348
12.145
12.0551
11.9651
11.8746
11.7839
11.6926
11.6003
11.5072
11.4129
11.3177
11.2216
11.1244
11.0265
10.9277
10.8285
10.7286
10.6284
10.5281
10.4279
10.3279
10.2284
10.1295
10.0315
9.9345
9.83873
9.74438
9.65149
9.56021
9.47051
9.38249
9.29608
9.21129
9.12803
9.04624
8.96576
8.88652
8.80835
8.73115
8.65486
8.57932
8.50448
8.43024
8.35646
8.28313
8.21008
8.13768
8.06617
7.99542
7.92529
7.85624
7.78835
7.72184
7.65679
7.59334
7.53182
7.47218
7.41441
7.35853
7.30438
7.25213
7.20192
7.15333
7.10595
7.05986
7.01499
6.97083
6.92702
6.88331
6.83935
6.79488
6.7496
6.70338
6.65549
6.60621
6.55563
6.50357
6.45003
6.39513
6.33912
6.28214
6.22447
6.16637
6.10803
6.05012
5.99284
5.9369
5.8829
5.83102
5.78161
5.73502
5.69125
5.6508
5.61399
5.5806
5.55029
5.52322
5.49868
5.47683
5.45738
5.43988
5.42377
5.40848
5.39344
5.37808
5.3616
5.34372
5.32392
5.30184
5.27726
5.24965
5.21849
5.18384
5.14565
5.10396
5.05843
5.0098
4.95837
4.90448
4.84817
4.79031
4.73171
4.67274
4.61419
4.55642
4.49983
4.44526
4.39255
4.343
4.29752
4.25617
4.21929
4.1872
4.16
4.13817
4.12214
4.11183
4.10693
4.10795
4.11479
4.12758
4.14645
4.17111
4.20122
4.23689
4.27789
4.32438
4.37601
4.43288
4.4948
4.56177
4.6337
4.71049
4.79208
4.87834
4.96913
5.06434
5.16345
5.26675
5.37396
5.48502
5.59988
5.71809
5.83941
5.96355
6.09004
6.21878
6.34947
6.48176
6.61487
6.74905
6.8838
7.01903
7.15505
7.29122
7.42711
7.56279
7.6985
7.83388
7.96882
8.10346
8.23758
8.37149
8.50531
8.63914
8.77271
8.90652
9.04075
9.17556
9.31076
9.4467
9.58371
9.72166
9.86031
9.99991
10.1405
10.282
10.4242
10.5673
10.7116
10.8566
11.0021
11.1482
11.2949
11.4421
11.5897
11.7376
11.8859
12.0342
12.1818
12.3294
12.4774
12.6251
12.7727
12.9201
13.0671
13.2137
13.36
13.5059
13.6515
13.7966
13.9409
14.0846
14.228
14.3706
14.5127
14.6539
14.7946
14.9344
15.073
15.2105
15.3464
15.4811
15.6148
15.747
15.8777
16.0066
16.1332
16.2578
16.3803
16.5004
16.6178
16.7325
16.8443
16.9532
17.0594
17.1623
17.2618
17.358
17.451
17.5405
17.6262
17.7083
17.7867
17.8618
17.934
18.003
18.0689
18.1318
18.1919
18.2493
18.3048
18.3581
18.4101
18.4605
18.5098
18.5581
18.6056
18.6527
18.6994
18.7459
18.7923
18.8387
18.8856
18.9327
18.9802
19.0276
19.0753
19.1228
19.1701
19.2168
19.2623
19.3067
19.3498
19.3912
19.4311
19.4689
19.505
19.5386
19.5694
19.5974
19.6228
19.6452
19.6648
19.6815
19.6951
19.7059
19.7148
19.7213
19.7254
19.7273
19.7269
19.7245
19.7198
19.7131
19.7043
19.6931
19.6794
19.6629
19.6432
19.6199
19.5925
19.5606
19.524
19.4817
19.4334
19.3783
19.3157
19.2453
19.1668
19.0797
18.9835
18.8782
18.7634
18.6393
18.5061
18.364
18.2134
18.0546
17.8884
17.7154
17.536
17.3513
17.1626
16.9703
16.775
16.5781
16.3811
16.1843
15.9883
15.7943
15.6036
15.4161
15.2323
15.0527
14.8775
14.7069
14.5413
14.3803
14.2235
14.0711
13.9228
13.778
13.6365
13.4976
13.3608
13.2258
13.0921
12.959
12.8267
12.6941
12.5606
12.4262
12.291
12.1545
12.017
11.8783
11.7382
11.5969
11.4548
11.3118
11.1688
11.0257
10.8829
10.7408
10.5997
10.4599
10.3213
10.1846
10.0502
9.9182
9.78938
9.66317
9.53958
9.41867
9.30032
9.18443
9.07091
8.95938
8.84959
8.74116
8.63319
8.52571
8.4186
8.31111
8.20324
8.09411
7.98308
7.86993
7.7545
7.63624
7.51482
7.39009
7.26157
7.12943
6.99349
6.85373
6.71006
6.56265
6.41212
6.25818
6.10106
5.941
5.77855
5.6137
5.44666
5.2777
5.10735
4.93556
4.76231
4.58802
4.41323
4.23761
4.06149
3.88474
3.70747
3.52937
3.35049
3.17056
2.98947
2.80707
2.62359
2.43838
2.25081
2.06112
1.86932
1.67508
1.47872
1.27968
1.0779
0.873421
0.666146
0.456211
0.243894
0.029133
-0.187512
-0.406253
-0.627053
-0.849644
-1.07364
-1.29912
-1.52576
-1.75368
-1.98259
-2.2128
-2.44448
-2.67774
-2.91279
-3.14983
-3.38874
-3.6303
-3.87511
-4.12362
-4.37552
-4.63221
-4.89452
-5.16262
-5.43668
-5.71751
-6.00584
-6.30187
-6.60595
-6.91823
-7.23864
-7.56752
-7.90491
-8.25065
-8.60386
-8.96487
-9.33314
-9.70843
-10.0904
-10.4782
-10.8709
-11.2681
-11.669
-12.0731
-12.4801
-12.889
-13.2987
-13.7091
-14.1199
-14.5308
-14.9415
-15.3518
-15.7619
-16.1714
-16.58
-16.9881
-17.3956
-17.803
-18.2107
-18.6189
-19.0276
-19.4373
-19.8477
-20.2594
-20.6726
-21.0875
-21.5046
-21.9235
-22.344
-22.7664
-23.1906
-23.6162
-24.0428
-24.4705
-24.8986
-25.3269
-25.7552
-26.1829
-26.6094
-27.0346
-27.458
-27.8795
-28.2985
-28.715
-29.1292
-29.5405
-29.9482
-30.3528
-30.7539
-31.152
-31.5477
-31.9405
-32.3311
-32.7194
-33.1055
-33.4901
-33.8729
-34.2547
-34.6362
-35.0174
-35.3987
-35.7803
-36.1627
-36.5461
-36.9302
-37.3158
-37.7031
-38.0923
-38.4836
-38.8769
-39.2727
-39.6707
-40.0706
-40.4727
-40.877
-41.2831
-41.6911
-42.1007
-42.5113
-42.923
-43.3355
-43.7482
-44.161
-44.5733
-44.9846
-45.3943
-45.8016
-46.2062
-46.6079
-47.0058
-47.3996
-47.7884
-48.1715
-48.5486
-48.9195
-49.2834
-49.6402
-49.9894
-50.3311
-50.665
-50.9909
-51.309
-51.6193
-51.9223
-52.2185
-52.5081
-52.7918
-53.0701
-53.3443
-53.6147
-53.8819
-54.1468
-54.4103
-54.6731
-54.9364
-55.2007
-55.4668
-55.7353
-56.0073
-56.283
-56.5631
-56.8477
-57.1376
-57.4325
-57.7325
-58.0373
-58.3467
-58.6603
-58.9777
-59.2985
-59.6222
-59.9481
-60.2753
-60.603
-60.9307
-61.2574
-61.5825
-61.9051
-62.2241
-62.5392
-62.8494
-63.1544
-63.4539
-63.7473
-64.0342
-64.3145
-64.5882
-64.8549
-65.1146
-65.3673
-65.6135
-65.8531
-66.086
-66.3129
-66.5342
-66.75
-66.961
-67.1669
-67.3679
-67.5643
-67.7568
-67.9451
-68.1291
-68.3091
-68.485
-68.6569
-68.8251
-68.9893
-69.1495
-69.3057
-69.458
-69.6062
-69.7502
-69.89
-70.026
-70.1581
-70.2868
-70.4119
-70.5338
-70.6526
-70.7683
-70.8816
-70.9932
-71.1033
-71.2128
-71.3216
-71.4296
-71.5376
-71.6461
-71.7553
-71.8653
-71.9763
-72.0886
-72.2022
-72.3175
-72.4341
-72.5515
-72.6699
-72.7888
-72.9083
-73.0288
-73.1492
-73.2691
-73.3884
-73.5069
-73.6244
-73.741
-73.8562
-73.9701
-74.0825
-74.1936
-74.3033
-74.4116
-74.5187
-74.6257
-74.7321
-74.8376
-74.9431
-75.0487
-75.1549
-75.2622
-75.3706
-75.4801
-75.5911
-75.704
-75.8187
-75.9355
-76.0542
-76.1751
-76.2978
-76.4226
-76.5491
-76.6767
-76.8057
-76.9361
-77.0675
-77.1999
-77.3327
-77.4654
-77.598
-77.7309
-77.8631
-77.9947
-78.1253
-78.2546
-78.3825
-78.5088
-78.633
-78.7548
-78.8741
-78.9902
-79.1032
-79.213
-79.3188
-79.4195
-79.5153
-79.6057
-79.69
-79.7679
-79.8386
-79.901
-79.955
-79.9999
-80.0353
-80.0606
-80.0754
-80.0797
-80.0728
-80.0545
-80.0246
-79.9831
-79.9302
-79.8662
-79.7912
-79.7056
-79.6101
-79.5054
-79.3923
-79.2716
-79.1444
-79.0128
-78.877
-78.7381
-78.5976
-78.4568
-78.3169
-78.1794
-78.0455
-77.916
-77.7925
-77.6763
-77.5682
-77.4696
-77.3808
-77.3024
-77.235
-77.1797
-77.1361
-77.1045
-77.085
-77.0774
-77.0814
-77.0967
-77.1227
-77.1591
-77.2049
-77.2595
-77.3218
-77.391
-77.466
-77.5465
-77.6307
-77.7177
-77.8064
-77.8961
-77.9855
-78.0732
-78.1587
-78.2415
-78.3202
-78.3944
-78.463
-78.5253
-78.5808
-78.6294
-78.6701
-78.7027
-78.7269
-78.7423
-78.7487
-78.7462
-78.7344
-78.7137
-78.6837
-78.6446
-78.5962
-78.5386
-78.4719
-78.3968
-78.313
-78.2204
-78.1194
-78.0101
-77.8926
-77.7676
-77.6349
-77.4944
-77.3466
-77.1917
-77.0296
-76.8611
-76.6859
-76.5041
-76.3159
-76.1213
-75.9205
-75.7141
-75.5018
-75.284
-75.0606
-74.8326
-74.5995
-74.3614
-74.1188
-73.8717
-73.6206
-73.3662
-73.1084
-72.8472
-72.5831
-72.3164
-72.0477
-71.7776
-71.5063
-71.2346
-70.9626
-70.691
-70.4201
-70.1507
-69.8829
-69.617
-69.3536
-69.0934
-68.8363
-68.583
-68.3332
-68.0873
-67.8452
-67.607
-67.3725
-67.1412
-66.9131
-66.6882
-66.4657
-66.2456
-66.0267
-65.8088
-65.591
-65.3727
-65.1533
-64.9317
-64.7076
-64.4806
-64.2497
-64.0142
-63.7739
-63.5287
-63.2782
-63.0221
-62.7603
-62.4928
-62.2199
-61.9418
-61.6589
-61.3717
-61.0807
-60.7862
-60.4893
-60.1909
-59.8916
-59.592
-59.2929
-58.9951
-58.6994
-58.4065
-58.1168
-57.831
-57.5492
-57.2714
-56.9982
-56.7296
-56.4658
-56.2067
-55.952
-55.7007
-55.4532
-55.2094
-54.9685
-54.73
-54.4933
-54.2577
-54.0232
-53.7893
-53.5557
-53.3221
-53.0885
-52.8548
-52.6207
-52.3865
-52.1522
-51.9181
-51.6846
-51.4517
-51.2202
-50.9907
-50.7638
-50.5395
-50.3187
-50.1017
-49.8892
-49.6816
-49.4794
-49.2831
-49.0927
-48.9084
-48.7305
-48.5585
-48.3929
-48.2337
-48.0805
-47.9328
-47.7905
-47.6528
-47.5195
-47.3903
-47.2644
-47.1412
-47.0202
-46.9005
-46.7816
-46.6629
-46.5439
-46.4237
-46.3023
-46.1793
-46.0541
-45.9265
-45.7961
-45.6624
-45.5258
-45.3862
-45.2438
-45.0989
-44.9516
-44.8015
-44.6497
-44.4968
-44.3431
-44.189
-44.0353
-43.8828
-43.732
-43.5835
-43.4382
-43.2967
-43.1597
-43.0275
-42.9009
-42.78
-42.6656
-42.5583
-42.4578
-42.3637
-42.2766
-42.1959
-42.122
-42.0549
-41.9938
-41.939
-41.8894
-41.8443
-41.8034
-41.766
-41.7313
-41.6982
-41.6666
-41.6355
-41.6048
-41.5742
-41.5429
-41.5102
-41.476
-41.4404
-41.403
-41.3636
-41.3223
-41.2789
-41.2335
-41.1864
-41.138
-41.0888
-41.0389
-40.9884
-40.9378
-40.8878
-40.8385
-40.79
-40.7427
-40.696
-40.6509
-40.6078
-40.5663
-40.526
-40.4872
-40.4499
-40.4138
-40.3791
-40.3452
-40.3121
-40.2796
-40.2469
-40.2143
-40.1818
-40.1492
-40.1167
-40.0838
-40.0499
-40.0155
-39.9814
-39.9471
-39.9125
-39.8779
-39.8439
-39.8104
-39.777
-39.7443
-39.7123
-39.6816
-39.6527
-39.6255
-39.5998
-39.5759
-39.5539
-39.5336
-39.5153
-39.4985
-39.4833
-39.4696
-39.4574
-39.4464
-39.4359
-39.426
-39.4166
-39.4074
-39.398
-39.3885
-39.3789
-39.3687
-39.3576
-39.3458
-39.3332
-39.3199
-39.3062
-39.2918
-39.2766
-39.2611
-39.2452
-39.2294
-39.2138
-39.1989
-39.1853
-39.173
-39.1623
-39.1532
-39.1461
-39.1412
-39.1383
-39.138
-39.1405
-39.1456
-39.1533
-39.1633
-39.1756
-39.1899
-39.2055
-39.2225
-39.241
-39.2604
-39.2798
-39.2992
-39.3181
-39.336
-39.3528
-39.3678
-39.3809
-39.3916
-39.3996
-39.405
-39.4076
-39.4075
-39.4048
-39.3996
-39.3923
-39.383
-39.3715
-39.3585
-39.3442
-39.3291
-39.3136
-39.2981
-39.2823
-39.2673
-39.2536
-39.2413
-39.2308
-39.2221
-39.2155
-39.2112
-39.2088
-39.2087
-39.211
-39.2155
-39.2221
-39.2306
-39.2405
-39.2519
-39.2645
-39.278
-39.2917
-39.3055
-39.3189
-39.3316
-39.343
-39.353
-39.3614
-39.3676
-39.372
-39.3738
-39.3723
-39.3677
-39.3602
-39.3493
-39.3351
-39.3174
-39.296
-39.2713
-39.2436
-39.2126
-39.1791
-39.1427
-39.1043
-39.0635
-39.0198
-38.9743
-38.9277
-38.8801
-38.8318
-38.783
-38.7341
-38.6855
-38.6376
-38.5906
-38.5447
-38.5003
-38.4581
-38.4179
-38.3796
-38.3437
-38.3101
-38.2791
-38.2507
-38.2248
-38.2017
-38.181
-38.1627
-38.1468
-38.133
-38.1212
-38.111
-38.1023
-38.095
-38.0889
-38.084
-38.0799
-38.0761
-38.0726
-38.0693
-38.0661
-38.0631
-38.0599
-38.0563
-38.0523
-38.0478
-38.0428
-38.0374
-38.0314
-38.0247
-38.0172
-38.0087
-37.9992
-37.9884
-37.9762
-37.9627
-37.9475
-37.9307
-37.9121
-37.8911
-37.8679
-37.8423
-37.8139
-37.7827
-37.7486
-37.7117
-37.672
-37.6294
-37.584
-37.5364
-37.4864
-37.4339
-37.3795
-37.3229
-37.2651
-37.2063
-37.1471
-37.0883
-37.03
-36.9725
-36.9161
-36.8615
-36.8089
-36.7585
-36.711
-36.6663
-36.625
-36.5873
-36.5533
-36.5236
-36.4978
-36.4756
-36.4574
-36.4435
-36.4335
-36.4276
-36.4255
-36.427
-36.4321
-36.4404
-36.452
-36.4669
-36.4848
-36.5055
-36.5288
-36.5545
-36.5824
-36.6124
-36.6444
-36.6777
-36.7125
-36.7488
-36.7859
-36.8237
-36.8618
-36.8998
-36.9376
-36.9745
-37.0104
-37.0449
-37.0777
-37.1083
-37.1363
-37.1612
-37.183
-37.2015
-37.2162
-37.2268
-37.2331
-37.2348
-37.2321
-37.2251
-37.2135
-37.1978
-37.178
-37.1548
-37.1282
-37.0984
-37.066
-37.0319
-36.9963
-36.9594
-36.9223
-36.8857
-36.8502
-36.8161
-36.7843
-36.7555
-36.7299
-36.7075
-36.6893
-36.676
-36.6674
-36.6636
-36.6648
-36.6713
-36.683
-36.6994
-36.7207
-36.747
-36.7779
-36.8131
-36.8524
-36.8948
-36.9404
-36.9893
-37.0408
-37.0944
-37.1499
-37.2068
-37.265
-37.3241
-37.3838
-37.4443
-37.5051
-37.5655
-37.626
-37.6869
-37.7476
-37.808
-37.8681
-37.9278
-37.987
-38.0454
-38.1033
-38.1609
-38.2177
-38.2735
-38.3284
-38.3817
-38.4336
-38.4842
-38.5331
-38.5805
-38.6261
-38.6695
-38.7107
-38.7492
-38.7851
-38.8186
-38.8495
-38.8777
-38.9033
-38.9263
-38.9468
-38.9652
-38.9816
-38.9958
-39.0085
-39.0206
-39.032
-39.0432
-39.0545
-39.0661
-39.0787
-39.0925
-39.1079
-39.125
-39.1443
-39.1659
-39.1903
-39.2173
-39.2471
-39.2798
-39.3153
-39.3535
-39.3942
-39.4376
-39.4832
-39.5305
-39.5794
-39.6291
-39.6797
-39.7307
-39.7819
-39.8329
-39.8835
-39.9337
-39.9829
-40.0303
-40.0761
-40.1206
-40.1632
-40.2032
-40.2411
-40.2765
-40.3097
-40.3409
-40.3697
-40.3961
-40.42
-40.4415
-40.4607
-40.4774
-40.4917
-40.5037
-40.5133
-40.5209
-40.5262
-40.5288
-40.5293
-40.528
-40.5247
-40.5193
-40.5121
-40.5031
-40.4924
-40.4801
-40.4665
-40.4518
-40.436
-40.4195
-40.4022
-40.3845
-40.3666
-40.3484
-40.3304
-40.3131
-40.2964
-40.2806
-40.2656
-40.2519
-40.2392
-40.2276
-40.2172
-40.2085
-40.2011
-40.195
-40.1903
-40.1871
-40.1851
-40.1844
-40.185
-40.1865
-40.1892
-40.1931
-40.1982
-40.2043
-40.2116
-40.2203
-40.2302
-40.2411
-40.2532
-40.2673
-40.2828
-40.2996
-40.3178
-40.3379
-40.3593
-40.382
-40.4057
-40.4303
-40.4556
-40.481
-40.5062
-40.5311
-40.555
-40.5772
-40.5971
-40.614
-40.6274
-40.6367
-40.6409
-40.6398
-40.6324
-40.6182
-40.5966
-40.5672
-40.5298
-40.4843
-40.4306
-40.3688
-40.299
-40.2216
-40.1368
-40.045
-39.947
-39.8431
-39.7344
-39.622
-39.5065
-39.3889
-39.2702
-39.1512
-39.0328
-38.9157
-38.8005
-38.6882
-38.5788
-38.4728
-38.3703
-38.2715
-38.1761
-38.0841
-37.995
-37.9084
-37.8237
-37.7398
-37.6562
-37.5725
-37.4874
-37.4003
-37.31
-37.2158
-37.1167
-37.0117
-36.9003
-36.7816
-36.6553
-36.5207
-36.3778
-36.2269
-36.0675
-35.9
-35.7242
-35.5401
-35.3481
-35.149
-34.9428
-34.7301
-34.5114
-34.2873
-34.0583
-33.8256
-33.5889
-33.3487
-33.1054
-32.8595
-32.6111
-32.3605
-32.1079
-31.8537
-31.5977
-31.3397
-31.08
-30.8188
-30.5558
-30.291
-30.0244
-29.7563
-29.4864
-29.2148
-28.9418
-28.6674
-28.3919
-28.1158
-27.8391
-27.5621
-27.2851
-27.0084
-26.7325
-26.4583
-26.1858
-25.9152
-25.6471
-25.3815
-25.119
-24.8598
-24.604
-24.3523
-24.1043
-23.8602
-23.6198
-23.3829
-23.1493
-22.919
-22.6917
-22.4668
-22.2441
-22.0233
-21.8041
-21.5858
-21.3682
-21.1508
-20.9335
-20.7162
-20.4984
-20.2799
-20.0606
-19.8406
-19.62
-19.3987
-19.1771
-18.9551
-18.7331
-18.5118
-18.2912
-18.0719
-17.8543
-17.6383
-17.4247
-17.2137
-17.0055
-16.8004
-16.5988
-16.4007
-16.2065
-16.016
-15.8293
-15.6462
-15.4666
-15.2901
-15.1165
-14.9457
-14.7771
-14.6105
-14.4453
-14.2804
-14.1161
-13.9521
-13.7878
-13.6226
-13.4563
-13.2886
-13.1194
-12.9489
-12.7767
-12.6027
-12.4273
-12.2506
-12.073
-11.8944
-11.7156
-11.537
-11.3591
-11.1828
-11.0082
-10.8355
-10.6655
-10.499
-10.3362
-10.1774
-10.0232
-9.87404
-9.73001
-9.59127
-9.45802
-9.33044
-9.2082
-9.09084
-8.97839
-8.87003
-8.76584
-8.66554
-8.5684
-8.47333
-8.38033
-8.28926
-8.19909
-8.10925
-8.01922
-7.92776
-7.83512
-7.74112
-7.64516
-7.54693
-7.44627
-7.34304
-7.23723
-7.12858
-7.01741
-6.90394
-6.78847
-6.67098
-6.5521
-6.43237
-6.31206
-6.19113
-6.07058
-5.95135
-5.83353
-5.71727
-5.60354
-5.49281
-5.38551
-5.28205
-5.18289
-5.08841
-4.99897
-4.9146
-4.83576
-4.76264
-4.69541
-4.63435
-4.57936
-4.52991
-4.48645
-4.44907
-4.41736
-4.39063
-4.36912
-4.35263
-4.34075
-4.33317
-4.32952
-4.32911
-4.33181
-4.33718
-4.34486
-4.35443
-4.3655
-4.37793
-4.39116
-4.40412
-4.41719
-4.43009
-4.44261
-4.45497
-4.46657
-4.47707
-4.48665
-4.49551
-4.50331
-4.50965
-4.51501
-4.51946
-4.52313
-4.52612
-4.5286
-4.53068
-4.53247
-4.53416
-4.53599
-4.53815
-4.54078
-4.54404
-4.54811
-4.55307
-4.55909
-4.56606
-4.57428
-4.58384
-4.59478
-4.60696
-4.62057
-4.63585
-4.65262
-4.67061
-4.69002
-4.71062
-4.73261
-4.75611
-4.78083
-4.80647
-4.83316
-4.86083
-4.88949
-4.91898
-4.94926
-4.98051
-5.01239
-5.04456
-5.07707
-5.10961
-5.14217
-5.17482
-5.20723
-5.23898
-5.2701
-5.30045
-5.32988
-5.35809
-5.38489
-5.41037
-5.43412
-5.4557
-5.47519
-5.49265
-5.5078
-5.52063
-5.53112
-5.53904
-5.54455
-5.54825
-5.54969
-5.54849
-5.5453
-5.54033
-5.53377
-5.52594
-5.5171
-5.50745
-5.49727
-5.48687
-5.47654
-5.46659
-5.45728
-5.44884
-5.44155
-5.4359
-5.43187
-5.42948
-5.42904
-5.43043
-5.43389
-5.43986
-5.44789
-5.45769
-5.46935
-5.48303
-5.49841
-5.51501
-5.53287
-5.55198
-5.57187
-5.59228
-5.613
-5.63351
-5.6539
-5.67374
-5.69312
-5.71195
-5.73003
-5.74757
-5.76429
-5.77985
-5.79453
-5.80887
-5.82245
-5.83517
-5.84737
-5.85898
-5.8704
-5.88176
-5.89321
-5.90489
-5.9169
-5.92928
-5.94211
-5.95543
-5.96922
-5.98375
-5.99867
-6.01389
-6.02926
-6.04434
-6.05917
-6.07359
-6.08744
-6.10027
-6.11203
-6.12281
-6.13223
-6.14014
-6.14647
-6.15098
-6.15389
-6.15521
-6.15501
-6.15372
-6.15134
-6.14818
-6.14452
-6.14053
-6.13684
-6.13365
-6.13168
-6.13153
-6.13343
-6.13761
-6.14466
-6.15495
-6.16881
-6.18649
-6.20824
-6.2342
-6.26445
-6.2992
-6.33822
-6.3811
-6.42786
-6.47825
-6.53191
-6.58875
-6.64811
-6.70955
-6.77256
-6.83643
-6.90094
-6.96565
-7.03003
-7.09364
-7.15608
-7.21721
-7.2765
-7.33332
-7.38798
-7.44056
-7.49088
-7.53849
-7.58395
-7.62762
-7.66942
-7.70941
-7.74811
-7.78583
-7.82289
-7.85965
-7.89652
-7.93402
-7.97215
-8.01089
-8.05068
-8.09188
-8.13444
-8.17823
-8.22342
-8.27011
-8.31799
-8.36646
-8.41566
-8.46532
-8.51508
-8.56465
-8.61362
-8.66166
-8.70839
-8.7537
-8.79706
-8.83809
-8.87687
-8.91328
-8.94728
-8.97859
-9.00758
-9.03446
-9.05941
-9.08291
-9.10519
-9.12673
-9.14792
-9.1688
-9.19029
-9.21276
-9.23691
-9.26368
-9.29307
-9.3255
-9.3614
-9.40108
-9.44471
-9.49226
-9.54404
-9.60003
-9.66017
-9.72411
-9.79175
-9.86294
-9.93718
-10.0142
-10.0935
-10.1746
-10.2569
-10.3399
-10.4231
-10.506
-10.5883
-10.6694
-10.7489
-10.8265
-10.9019
-10.9748
-11.0451
-11.1125
-11.1771
-11.2389
-11.298
-11.3543
-11.4082
-11.4596
-11.509
-11.5566
-11.6027
-11.6486
-11.6936
-11.7381
-11.7824
-11.8266
-11.8714
-11.9174
-11.9647
-12.0137
-12.0647
-12.1187
-12.175
-12.2335
-12.2948
-12.3595
-12.4272
-12.4979
-12.5718
-12.649
-12.7292
-12.8122
-12.8981
-12.9867
-13.0779
-13.1711
-13.2665
-13.3635
-13.4621
-13.5617
-13.662
-13.7625
-13.863
-13.9638
-14.064
-14.1629
-14.2604
-14.3565
-14.4507
-14.5426
-14.6321
-14.7195
-14.8042
-14.8859
-14.9648
-15.041
-15.1143
-15.1846
-15.252
-15.3166
-15.3786
-15.4382
-15.4955
-15.5508
-15.6043
-15.6561
-15.7066
-15.7558
-15.8042
-15.8521
-15.8998
-15.948
-15.9964
-16.0452
-16.0949
-16.1457
-16.1979
-16.2516
-16.3071
-16.3644
-16.4236
-16.4847
-16.5479
-16.6126
-16.6793
-16.7482
-16.8189
-16.8911
-16.9648
-17.0401
-17.1163
-17.1931
-17.2704
-17.3481
-17.4257
-17.503
-17.5797
-17.6558
-17.7309
-17.8048
-17.8771
-17.9476
-18.0162
-18.0832
-18.1481
-18.2108
-18.2712
-18.3294
-18.3854
-18.4396
-18.4918
-18.5416
-18.5896
-18.6363
-18.6815
-18.7253
-18.7679
-18.8092
-18.8496
-18.8896
-18.9291
-18.9682
-19.007
-19.0458
-19.0845
-19.1229
-19.1614
-19.2001
-19.239
-19.2779
-19.3169
-19.3564
-19.396
-19.4355
-19.4751
-19.515
-19.555
-19.5951
-19.6352
-19.6748
-19.7143
-19.7536
-19.7927
-19.8326
-19.8725
-19.9124
-19.9522
-19.9923
-20.0326
-20.0726
-20.1127
-20.1535
-20.1945
-20.2353
-20.2764
-20.318
-20.3599
-20.4022
-20.4447
-20.4878
-20.5312
-20.5748
-20.6189
-20.6638
-20.7093
-20.7555
-20.8025
-20.8503
-20.8992
-20.95
-21.0022
-21.0555
-21.1106
-21.1679
-21.2274
-21.2895
-21.3541
-21.4211
-21.4908
-21.5637
-21.6395
-21.7182
-21.7998
-21.8843
-21.9714
-22.0606
-22.1522
-22.2462
-22.3417
-22.4384
-22.5359
-22.6336
-22.7312
-22.8279
-22.9233
-23.0171
-23.1085
-23.197
-23.2822
-23.3633
-23.4403
-23.5128
-23.5806
-23.6436
-23.7016
-23.7545
-23.8023
-23.845
-23.883
-23.9165
-23.946
-23.9723
-23.9953
-24.0152
-24.0331
-24.0497
-24.0654
-24.0806
-24.0957
-24.1112
-24.1276
-24.1455
-24.1648
-24.1853
-24.2078
-24.2324
-24.2589
-24.2875
-24.3177
-24.3499
-24.3834
-24.418
-24.4535
-24.4897
-24.5261
-24.5628
-24.5995
-24.6358
-24.6717
-24.7078
-24.7434
-24.7781
-24.8123
-24.8459
-24.8792
-24.9124
-24.9455
-24.9789
-25.0125
-25.0464
-25.0809
-25.1162
-25.152
-25.1888
-25.2261
-25.2637
-25.3016
-25.3398
-25.3778
-25.4156
-25.4523
-25.4877
-25.5212
-25.5523
-25.5804
-25.6052
-25.6261
-25.6427
-25.6544
-25.661
-25.6622
-25.6575
-25.6466
-25.6298
-25.6066
-25.5772
-25.5415
-25.4998
-25.4522
-25.3989
-25.3402
-25.277
-25.2092
-25.1371
-25.0611
-24.9815
-24.8986
-24.8129
-24.7244
-24.6339
-24.541
-24.4457
-24.3482
-24.2485
-24.1462
-24.0414
-23.9335
-23.822
-23.7068
-23.588
-23.4647
-23.3372
-23.2044
-23.0655
-22.9205
-22.7695
-22.612
-22.4475
-22.276
-22.0975
-21.9118
-21.7191
-21.5193
-21.3132
-21.1005
-20.8812
-20.6559
-20.4254
-20.1898
-19.9494
-19.7051
-19.4577
-19.2076
-18.9556
-18.702
-18.4477
-18.193
-17.9383
-17.6842
-17.4317
-17.1809
-16.932
-16.6855
-16.4418
-16.2011
-15.9634
-15.729
-15.4985
-15.2713
-15.047
-14.8258
-14.6082
-14.3933
-14.1805
-13.97
-13.7607
-13.5529
-13.3468
-13.1414
-12.9359
-12.7304
-12.5251
-12.319
-12.1116
-11.9028
-11.6926
-11.4806
-11.2664
-11.0503
-10.832
-10.6116
-10.3894
-10.1652
-9.93957
-9.71242
-9.48366
-9.25388
-9.02311
-8.7918
-8.56014
-8.32846
-8.09739
-7.86688
-7.63736
-7.40889
-7.18118
-6.95502
-6.73086
-6.5086
-6.28811
-6.06979
-5.85381
-5.64022
-5.42917
-5.22073
-5.01494
-4.81198
-4.61149
-4.41398
-4.21953
-4.02837
-3.84053
-3.65631
-3.47609
-3.29987
-3.12758
-2.95971
-2.7967
-2.6385
-2.48521
-2.33698
-2.19354
-2.05536
-1.92233
-1.79466
-1.67245
-1.55543
-1.44351
-1.33642
-1.23341
-1.13469
-1.0398
-0.948472
-0.860256
-0.774778
-0.691547
-0.610113
-0.529773
-0.4503
-0.371251
-0.292252
-0.212763
-0.132549
-0.0513572
0.0311172
0.114904
0.2003
0.287402
0.376396
0.467822
0.561247
0.656704
0.753963
0.853167
0.953883
1.05604
1.1595
1.26425
1.36981
1.47623
1.583
1.68981
1.79652
1.90279
2.00836
2.11324
2.2168
2.31815
2.41741
2.51464
2.60906
2.70071
2.78894
2.8737
2.95448
3.03059
3.10223
3.16962
3.23217
3.28976
3.34233
3.39021
3.43308
3.47055
3.50324
3.5319
3.55631
3.57673
3.5935
