2.948100e-01	2.733355e-01	2.257117e-01	3.837837e-01	4.345185e-01	5.316865e-01	9.599176e-02	4.084807e-03	1.099814e-01	2.014812e-02	5.512719e-01	5.230113e-01	5.613980e-01	5.749290e-01	6.962068e-01	9.042100e-01	9.991195e-01	9.566423e-01	7.771106e-01	3.665218e-01	1
5.616314e-01	3.938499e-01	1.076403e-01	1.576099e-01	1.953298e-01	2.912469e-01	1.079154e-03	2.184828e-01	4.999462e-01	5.848073e-01	1.215574e-02	1.081022e-02	6.195423e-05	2.679759e-02	6.258648e-02	2.345285e-01	5.073336e-01	7.534748e-01	9.068606e-01	9.991676e-01	1
4.545814e-01	2.912857e-01	1.943826e-01	2.928843e-01	3.338159e-01	4.709791e-01	1.729823e-02	1.362907e-01	2.660309e-01	3.185289e-01	3.256634e-01	2.131642e-01	1.422173e-01	4.963219e-02	2.234044e-03	3.007773e-01	7.036941e-01	9.247193e-01	9.993405e-01	9.121114e-01	1
3.226931e-01	2.442614e-01	2.237000e-01	3.390124e-01	3.892961e-01	5.308667e-01	3.667705e-02	1.183624e-01	2.395767e-01	2.845131e-01	6.421592e-01	4.727462e-01	3.042110e-01	1.316702e-01	2.701148e-03	2.978242e-01	7.268674e-01	9.597180e-01	9.809489e-01	8.714951e-01	1
2.108866e-01	1.821259e-01	9.172829e-02	2.255975e-01	3.658020e-01	5.205479e-01	3.910378e-02	1.059429e-01	1.781759e-01	1.913214e-01	3.950486e-01	2.644658e-01	1.395881e-01	6.191240e-02	9.394184e-03	3.296641e-01	7.308495e-01	9.506000e-01	9.870911e-01	8.596046e-01	0
2.938455e-01	2.021869e-01	9.896941e-02	3.532189e-01	5.213167e-01	7.011275e-01	2.073713e-01	2.338906e-01	2.991796e-01	3.128859e-01	4.608475e-01	2.821684e-01	1.871076e-01	8.116211e-02	4.077601e-03	3.254911e-01	7.369410e-01	9.748728e-01	9.845276e-01	8.838950e-01	1
5.032315e-01	4.615436e-01	3.872538e-01	5.495488e-01	6.480442e-01	8.195669e-01	4.684168e-01	4.284803e-01	2.324695e-01	4.170681e-02	5.650823e-01	4.019080e-01	2.691871e-01	1.160536e-01	9.635080e-04	3.158936e-01	7.408134e-01	9.633572e-01	9.562358e-01	8.504859e-01	1
4.145714e-01	3.609215e-01	2.591258e-01	3.759780e-01	4.315458e-01	5.359496e-01	3.166551e-02	5.266661e-02	1.437800e-01	1.269342e-01	3.572580e-01	2.293130e-01	1.280194e-01	5.177368e-02	1.290829e-02	2.964085e-01	6.688888e-01	9.121900e-01	9.900756e-01	9.292248e-01	1
2.361625e-01	1.417040e-01	1.202067e-01	3.551701e-01	5.840423e-01	9.176808e-01	3.734347e-01	3.586600e-01	3.309765e-01	3.019704e-01	3.123462e-01	1.810298e-01	8.389772e-02	3.459473e-02	5.676285e-03	3.305287e-01	7.187070e-01	9.371824e-01	9.946715e-01	9.068616e-01	1
2.001237e-01	1.461431e-01	1.248397e-01	3.247145e-01	4.855246e-01	6.941588e-01	9.707270e-02	2.568442e-02	3.675804e-02	8.071728e-02	3.106805e-01	1.918630e-01	1.382014e-01	7.017215e-02	2.040320e-02	3.357973e-01	7.262931e-01	9.431353e-01	9.994906e-01	9.156593e-01	1
2.802823e-01	1.782921e-01	1.097935e-01	3.193917e-01	4.572981e-01	6.645916e-01	1.585000e-01	1.466432e-01	1.514270e-01	1.630690e-01	7.027787e-01	5.190180e-01	3.571192e-01	1.667021e-01	3.728584e-03	2.795401e-01	7.148964e-01	9.316784e-01	9.960977e-01	9.225856e-01	1
3.260668e-01	2.034128e-01	1.124403e-01	3.479003e-01	5.295799e-01	7.496329e-01	2.114740e-01	2.377141e-01	2.707192e-01	2.788988e-01	2.502285e-01	1.534952e-01	8.158524e-02	3.334210e-02	2.505068e-03	3.338205e-01	7.462374e-01	9.431377e-01	9.887782e-01	9.075152e-01	1
2.713570e-01	1.724191e-01	1.069044e-01	3.217640e-01	5.056733e-01	7.314389e-01	1.350868e-01	7.874458e-02	1.831391e-01	1.843908e-01	4.457034e-01	2.960410e-01	1.879341e-01	7.962789e-02	2.630676e-03	3.536332e-01	7.639615e-01	9.378709e-01	9.890692e-01	9.714793e-01	0
1.891357e-01	1.132031e-01	1.070534e-01	3.974664e-01	6.452283e-01	9.146586e-01	4.425474e-01	3.908637e-01	4.676568e-01	4.944637e-01	4.947212e-01	3.404036e-01	2.076246e-01	8.984231e-02	2.694483e-03	3.296316e-01	7.176682e-01	9.207704e-01	9.930589e-01	9.241403e-01	1
3.927597e-01	8.766912e-01	7.313452e-01	1.490745e-01	1.815580e-01	4.983326e-01	7.207579e-01	6.383783e-01	3.677226e-01	1.820843e-01	4.853228e-02	8.788227e-02	5.096451e-01	8.556077e-01	9.938312e-01	9.452849e-01	8.465285e-01	6.782413e-01	5.016357e-01	3.071837e-01	1
1.949318e-01	1.257668e-01	1.310301e-01	4.052213e-01	5.347672e-01	6.660713e-01	1.131954e-01	5.012125e-02	8.753029e-02	6.362082e-02	0	1.804127e-01	2.456716e-01	2.356315e-01	2.120772e-01	4.274197e-01	7.361122e-01	9.262189e-01	9.929160e-01	9.394364e-01	1
3.351592e-01	2.917303e-01	2.535933e-01	4.085127e-01	4.872277e-01	5.294088e-01	4.777427e-02	9.579846e-03	1.172903e-01	1.987504e-01	8.672532e-02	1.397928e-02	1.165923e-01	2.198169e-01	1.746738e-01	4.377037e-01	7.482485e-01	9.257090e-01	9.680220e-01	9.067513e-01	1
6.030795e-01	6.030723e-01	5.512174e-01	6.382364e-01	5.952800e-01	4.316928e-01	2.531024e-02	8.794062e-02	2.725740e-01	3.996311e-01	3.026440e-01	1.781070e-01	9.308951e-02	3.538631e-02	1.410471e-02	3.188894e-01	7.035392e-01	9.479461e-01	9.879834e-01	9.584086e-01	1
3.014168e-01	1.938422e-01	1.074418e-01	2.715326e-01	4.023724e-01	5.606226e-01	5.011303e-02	7.181281e-02	1.633427e-01	2.286369e-01	3.657291e-01	2.340515e-01	1.449547e-01	6.819199e-02	1.064686e-02	3.190750e-01	6.947800e-01	9.207671e-01	9.891316e-01	9.143302e-01	1
2.983929e-01	1.989051e-01	1.227602e-01	2.709309e-01	4.050244e-01	5.565802e-01	4.385199e-02	7.377224e-02	1.640919e-01	2.298013e-01	3.647413e-01	2.332372e-01	1.435580e-01	6.625539e-02	1.282572e-02	3.250074e-01	6.999357e-01	9.225804e-01	9.902579e-01	9.127201e-01	1
3.816357e-01	2.292716e-01	7.314748e-02	2.757716e-01	4.289677e-01	6.203478e-01	1.202494e-01	1.578416e-01	2.650994e-01	2.737277e-01	4.961718e-01	3.688295e-01	2.509638e-01	1.015057e-01	7.286914e-03	3.545932e-01	7.261851e-01	9.471032e-01	9.808886e-01	9.528671e-01	1
3.096408e-01	1.795749e-01	9.042872e-02	3.559263e-01	5.256636e-01	7.871342e-01	3.101259e-01	3.305210e-01	3.785748e-01	3.726621e-01	4.960621e-01	3.714436e-01	2.255890e-01	9.582571e-02	1.383148e-02	5.003048e-01	8.929041e-01	9.925043e-01	9.138854e-01	7.995806e-01	1
2.322359e-01	1.342542e-01	9.038796e-02	3.383117e-01	5.264911e-01	7.633789e-01	2.466572e-01	2.158881e-01	2.377295e-01	1.898080e-01	4.059103e-01	2.772025e-01	1.836815e-01	7.786635e-02	6.089734e-03	3.292311e-01	7.269884e-01	9.526654e-01	9.973913e-01	8.767909e-01	1
2.291187e-01	1.719601e-01	9.092229e-02	4.032742e-01	5.813902e-01	7.647315e-01	1.950578e-01	1.461258e-01	1.850457e-01	1.740939e-01	5.022725e-01	3.400972e-01	2.222787e-01	9.386518e-02	2.330351e-03	3.190354e-01	7.189759e-01	9.546974e-01	9.855437e-01	9.379034e-01	1
2.148677e-01	1.525276e-01	1.048304e-01	3.623051e-01	4.983367e-01	6.689542e-01	1.082888e-01	6.081231e-02	1.065758e-01	5.953922e-02	3.756415e-01	2.376624e-01	1.627114e-01	4.722410e-02	9.740646e-04	2.857945e-01	7.028886e-01	9.238209e-01	9.997258e-01	9.477793e-01	1
2.296331e-01	1.948363e-01	1.087734e-01	3.263509e-01	5.000520e-01	7.077240e-01	1.105310e-01	1.450863e-01	1.727464e-01	1.848674e-01	1.041143e-01	6.919686e-02	3.807188e-02	1.770812e-02	2.507301e-03	1.275597e-01	2.740862e-01	3.687302e-01	4.138511e-01	6.536505e-01	1
5.984001e-01	5.342120e-01	2.504389e-01	3.917560e-01	5.794734e-01	8.383703e-01	4.501279e-01	2.375749e-01	8.399362e-02	2.859155e-02	4.038379e-01	5.044972e-01	3.054341e-01	2.110348e-01	4.093969e-02	4.476716e-01	8.283850e-01	9.881185e-01	8.333611e-01	4.384343e-01	0
3.649778e-01	2.667144e-01	3.920394e-01	5.794993e-01	4.455238e-01	4.054718e-01	3.678601e-03	2.632882e-01	3.659567e-01	5.607612e-01	9.889591e-01	9.948504e-01	6.391029e-01	3.772341e-01	1.792840e-01	3.882150e-02	5.826974e-02	5.272909e-02	2.657392e-02	6.938797e-03	1
5.758371e-01	3.135955e-01	8.157582e-02	2.319190e-01	3.746234e-01	6.276987e-01	1.992890e-01	2.633794e-01	3.088424e-01	3.106227e-01	0	4.547490e-02	9.653234e-02	1.165483e-01	1.140037e-01	3.395152e-01	7.504933e-01	9.503869e-01	9.872738e-01	9.652293e-01	1
9.695442e-02	8.095205e-02	1.269844e-01	4.502995e-01	6.668841e-01	9.247359e-01	2.418388e-01	1.993318e-01	1.573106e-01	1.339375e-01	2.905968e-01	1.960598e-01	1.247618e-01	6.790897e-02	1.701833e-03	3.185154e-01	7.377297e-01	9.461919e-01	9.984557e-01	9.195653e-01	1
2.186887e-01	1.701898e-01	1.801437e-01	3.928820e-01	5.523783e-01	6.874893e-01	6.617986e-02	2.514417e-02	7.926319e-02	9.585676e-02	3.656548e-01	2.453101e-01	1.701821e-01	7.131993e-02	3.590533e-03	3.581922e-01	7.528473e-01	9.582875e-01	9.885881e-01	9.227761e-01	1
2.946901e-01	2.034759e-01	1.301709e-01	2.618030e-01	3.733418e-01	6.123500e-01	6.714979e-02	7.560949e-02	1.585068e-01	1.846713e-01	4.682617e-01	3.187054e-01	1.914662e-01	7.105736e-02	4.800092e-03	3.275493e-01	7.531203e-01	9.542425e-01	9.851643e-01	8.853832e-01	1
3.406834e-01	2.288567e-01	1.240630e-01	3.559656e-01	5.050507e-01	7.506106e-01	3.027200e-01	3.332208e-01	3.845704e-01	4.049424e-01	9.861106e-01	7.070267e-01	4.588297e-01	2.128215e-01	1.573869e-03	3.403361e-01	8.125535e-01	9.963253e-01	9.369147e-01	7.800505e-01	1
3.018378e-01	2.258393e-01	1.045812e-01	3.762288e-01	5.306888e-01	7.694806e-01	2.719272e-01	2.786710e-01	2.958143e-01	2.689224e-01	5.492500e-01	3.805038e-01	2.478237e-01	1.537842e-01	5.400636e-03	3.044789e-01	7.426471e-01	9.592444e-01	9.981075e-01	9.682957e-01	0
2.107317e-01	1.427061e-01	7.125515e-02	3.094841e-01	4.825191e-01	6.863677e-01	9.435368e-02	9.525590e-02	1.581453e-01	1.740030e-01	4.594379e-01	3.204187e-01	1.885004e-01	8.119663e-02	1.959919e-03	3.329349e-01	7.574734e-01	9.634938e-01	9.912809e-01	8.935423e-01	1
2.702779e-01	1.702480e-01	7.567607e-02	3.053072e-01	4.398388e-01	6.476399e-01	1.015622e-01	1.223803e-01	1.804870e-01	2.119828e-01	4.455039e-01	2.972591e-01	1.903490e-01	8.485771e-02	4.671546e-03	3.234093e-01	7.531543e-01	9.596979e-01	9.924719e-01	9.115925e-01	1
2.724372e-01	1.829187e-01	9.452339e-02	3.163737e-01	4.933204e-01	7.026823e-01	1.810764e-01	1.803701e-01	2.343699e-01	2.270428e-01	4.286232e-01	2.913164e-01	1.610131e-01	7.733572e-02	0	3.070573e-01	7.094908e-01	9.449347e-01	9.892781e-01	9.154324e-01	1
2.549213e-01	1.662107e-01	8.882636e-02	3.374055e-01	4.988338e-01	6.940334e-01	1.805992e-01	1.214948e-01	1.717036e-01	1.935656e-01	3.660782e-01	2.383722e-01	1.401820e-01	4.813374e-02	1.341624e-02	3.055540e-01	7.031980e-01	9.146941e-01	9.884329e-01	9.265574e-01	1
2.655728e-01	1.833263e-01	9.746024e-02	3.275178e-01	4.907376e-01	6.755592e-01	1.479367e-01	1.272872e-01	1.953917e-01	1.923542e-01	3.850910e-01	2.728904e-01	1.670372e-01	6.240147e-02	2.253025e-03	2.998354e-01	7.159215e-01	9.336191e-01	9.704507e-01	9.451542e-01	1
3.227158e-01	2.171799e-01	9.803266e-02	3.376605e-01	4.810786e-01	6.816680e-01	1.809863e-01	1.501619e-01	1.936537e-01	1.871667e-01	4.525872e-01	3.333335e-01	2.022401e-01	7.613220e-02	1.179347e-04	2.924387e-01	7.202876e-01	9.387776e-01	9.997541e-01	9.417421e-01	1
2.761940e-01	1.573019e-01	7.213962e-02	3.160981e-01	4.881792e-01	7.086317e-01	1.298916e-01	1.485779e-01	2.135559e-01	2.190525e-01	3.318664e-01	2.306640e-01	1.404009e-01	6.287427e-02	5.632567e-05	2.560280e-01	6.802703e-01	9.144887e-01	9.938012e-01	9.749025e-01	1
2.943433e-01	1.593214e-01	1.005373e-01	3.231106e-01	4.756587e-01	6.916709e-01	1.670194e-01	1.260935e-01	1.814031e-01	2.091249e-01	4.110826e-01	3.053912e-01	1.889254e-01	9.240565e-02	1.212910e-03	2.892502e-01	6.809063e-01	9.156029e-01	9.827490e-01	8.977409e-01	1
2.629687e-01	1.654288e-01	8.927732e-02	3.090336e-01	4.829288e-01	6.779656e-01	1.309780e-01	1.091879e-01	1.533751e-01	1.797916e-01	4.017087e-01	2.797250e-01	1.656423e-01	8.508865e-02	0	2.906927e-01	6.951490e-01	9.198149e-01	9.895767e-01	9.464572e-01	1
2.772650e-01	1.602666e-01	7.881999e-02	2.860975e-01	4.735370e-01	6.666690e-01	1.432914e-01	1.138616e-01	2.210118e-01	1.729682e-01	3.722874e-01	2.636762e-01	1.624987e-01	7.087962e-02	9.041537e-06	2.685385e-01	6.703787e-01	9.005401e-01	9.963502e-01	9.238371e-01	1
2.831895e-01	1.846370e-01	1.011647e-01	3.242064e-01	4.616583e-01	6.677637e-01	1.468550e-01	1.003579e-01	1.623239e-01	1.878494e-01	4.648960e-01	3.068145e-01	2.188046e-01	1.055901e-01	0	2.804844e-01	6.827378e-01	9.459462e-01	9.999619e-01	9.254054e-01	1
3.018015e-01	1.948486e-01	1.076139e-01	3.616411e-01	5.632271e-01	7.738737e-01	2.048343e-01	1.831473e-01	2.450416e-01	2.562979e-01	3.838511e-01	2.467780e-01	1.555119e-01	4.920990e-02	5.478029e-03	2.814786e-01	7.008396e-01	9.414099e-01	9.874075e-01	9.429252e-01	1
2.532510e-01	1.515423e-01	8.126888e-02	3.502118e-01	5.392328e-01	7.514805e-01	7.835774e-02	1.581151e-01	2.109808e-01	2.017598e-01	3.443329e-01	2.320610e-01	1.521941e-01	6.882963e-02	3.705549e-03	2.846411e-01	7.006953e-01	9.318407e-01	9.956216e-01	9.316029e-01	1
4.155701e-01	3.313077e-01	2.453864e-01	2.038962e-01	2.850295e-01	6.574329e-01	2.866681e-01	4.181240e-01	5.663229e-01	6.163858e-01	2.896707e-01	1.726197e-01	1.052513e-01	5.735413e-02	5.799570e-04	2.725961e-01	6.916115e-01	9.247705e-01	9.995995e-01	8.860294e-01	1
5.806721e-01	5.430524e-01	4.635937e-01	5.534961e-01	6.058840e-01	9.020318e-01	3.088593e-01	2.805011e-01	5.169599e-01	5.031928e-01	4.882764e-01	3.579848e-01	3.045180e-01	1.540631e-01	7.984938e-02	7.220381e-03	3.007223e-01	3.510640e-01	7.915923e-01	9.970585e-01	1
5.396915e-01	5.288724e-01	5.799222e-01	5.894179e-01	6.057313e-01	6.552013e-01	3.425519e-01	4.638299e-01	8.219345e-01	6.574005e-01	5.171959e-01	4.053395e-01	3.378212e-01	2.806311e-01	1.279020e-01	3.739116e-01	7.985679e-01	9.249879e-01	9.176657e-01	5.581527e-01	1
7.214292e-01	9.284941e-01	8.179048e-01	2.620542e-01	1.838333e-02	4.180072e-02	1.821448e-01	2.583735e-01	1.029394e-01	1.323071e-02	2.507765e-01	7.720319e-01	9.153516e-01	3.451175e-01	2.698075e-02	2.124081e-01	7.932212e-01	9.999137e-01	8.293472e-01	5.138638e-01	1
7.448656e-01	9.050715e-01	8.315700e-01	5.464695e-01	2.928450e-01	1.453652e-01	2.695425e-03	9.114026e-02	2.977499e-01	5.467909e-01	1	7.072264e-01	4.297780e-01	1.720741e-01	1.106798e-03	2.977411e-01	6.448181e-01	7.453958e-01	7.037613e-01	5.903248e-01	0
8.520167e-01	9.670314e-01	8.453366e-01	4.874902e-01	1.592751e-01	7.460343e-02	1.734140e-01	2.766465e-01	2.044178e-01	1.223740e-02	6.794284e-02	2.109454e-01	7.529654e-01	9.745380e-01	9.363569e-01	7.862576e-01	5.942945e-01	4.783809e-01	3.146409e-01	1.791960e-01	0
5.940670e-01	5.434386e-01	5.353281e-01	6.359294e-01	7.527675e-01	7.850171e-01	3.953418e-01	2.719663e-01	2.262175e-01	8.153462e-02	3.913174e-01	2.781949e-01	1.554256e-01	4.772049e-02	1.058551e-02	4.568479e-01	8.790183e-01	9.990264e-01	8.860869e-01	7.349338e-01	1
6.644607e-01	9.433664e-01	9.350171e-01	6.663335e-01	3.702894e-01	1.060318e-01	8.183856e-02	1.565816e-01	3.969706e-01	5.930006e-01	9.491428e-01	9.937096e-01	8.603184e-01	7.494512e-01	6.480144e-01	4.924785e-01	3.838838e-01	2.132172e-01	8.064442e-02	4.630530e-02	0
4.939752e-02	5.553100e-02	7.558407e-02	2.103503e-01	2.736400e-01	3.803501e-01	1.775064e-02	2.417391e-01	4.947762e-01	6.304200e-01	5.571056e-01	3.926386e-01	2.195493e-01	7.921489e-02	1.325793e-02	5.051646e-01	9.209105e-01	1	8.858706e-01	7.221453e-01	0
1.488019e-01	5.624167e-02	6.223281e-02	2.333347e-01	3.375731e-01	4.793311e-01	1.015651e-01	1.886667e-01	2.980616e-01	2.591252e-01	4.680660e-01	3.070958e-01	1.793177e-01	1.117887e-01	9.326715e-03	4.817765e-01	8.791325e-01	9.664914e-01	9.507868e-01	7.848789e-01	1
6.879262e-02	8.295530e-02	2.203907e-01	4.020679e-01	5.022827e-01	5.589172e-01	5.670859e-02	1.776022e-02	7.936586e-02	1.232159e-01	5.065347e-01	3.342515e-01	2.229999e-01	7.799025e-02	3.074331e-02	5.036678e-01	8.556111e-01	9.988001e-01	9.407300e-01	8.034225e-01	0
2.198023e-01	4.569132e-01	4.583280e-01	5.382030e-01	4.221700e-01	2.644418e-01	8.464404e-03	2.195495e-01	4.650576e-01	5.035785e-01	4.759716e-02	7.692400e-03	4.566704e-02	3.886765e-02	6.804456e-02	3.563876e-01	7.181642e-01	9.084551e-01	9.964615e-01	9.912887e-01	0
5.267179e-01	2.573789e-01	4.373536e-02	7.796621e-03	7.094750e-02	3.123103e-01	9.271282e-02	2.542986e-01	4.327958e-01	5.001911e-01	2.807641e-01	2.178861e-01	1.279524e-01	6.662655e-02	1.900609e-03	3.485415e-01	7.398007e-01	9.308941e-01	9.940351e-01	9.483449e-01	1
3.687238e-01	1.083342e-01	5.207413e-02	2.286793e-01	4.582507e-01	7.756665e-01	4.254663e-01	4.248163e-01	3.703588e-01	2.636985e-01	4.320930e-01	3.270521e-01	2.180244e-01	8.904239e-02	1.429477e-03	3.636255e-01	8.002125e-01	9.836279e-01	9.899217e-01	8.759920e-01	1
6.896717e-02	6.863344e-02	1.934241e-01	4.338169e-01	5.853462e-01	7.098625e-01	1.989886e-01	7.270179e-02	1.191928e-02	5.377370e-03	5.083341e-01	3.662342e-01	2.134859e-01	9.228078e-02	5.620941e-03	3.532369e-01	7.847870e-01	9.501558e-01	9.671976e-01	8.723198e-01	1
3.718984e-01	2.360961e-01	1.151309e-01	1.127918e-01	1.653609e-01	3.327480e-01	7.979323e-03	9.141594e-02	1.985573e-01	2.582312e-01	3.465783e-01	2.549707e-01	1.371353e-01	5.603945e-02	1.460322e-02	4.021381e-01	8.082783e-01	9.716693e-01	9.707880e-01	8.485711e-01	1
1.169108e-01	1.325628e-02	6.974555e-02	2.826720e-01	4.883550e-01	7.162147e-01	2.317949e-01	1.408573e-01	9.463178e-02	6.164288e-02	4.288071e-01	2.730183e-01	1.578299e-01	5.619902e-02	8.653840e-03	3.983231e-01	8.147855e-01	9.845033e-01	9.525830e-01	8.414010e-01	1
2.719980e-01	1.301319e-01	5.359844e-02	1.414295e-01	2.594058e-01	4.348407e-01	6.235403e-02	9.377830e-02	1.614514e-01	1.634452e-01	4.945781e-01	3.280179e-01	2.001401e-01	9.460101e-02	3.783877e-03	4.358133e-01	8.748208e-01	9.931939e-01	9.565591e-01	8.662662e-01	1
2.628372e-01	1.206221e-01	7.100913e-02	1.882533e-01	3.045561e-01	4.778116e-01	4.665036e-02	3.820365e-02	5.887424e-02	8.404135e-02	4.475603e-01	3.122468e-01	1.858816e-01	7.810023e-02	1.567729e-03	4.046724e-01	8.031311e-01	9.611855e-01	9.483310e-01	8.365730e-01	1
3.063986e-01	1.314019e-01	3.537904e-02	1.269139e-01	2.645332e-01	5.088665e-01	1.710829e-01	2.303630e-01	3.503118e-01	4.228595e-01	4.929057e-01	3.614635e-01	1.997845e-01	9.100045e-02	1.361873e-02	4.062048e-01	8.462208e-01	9.820869e-01	9.219138e-01	6.391167e-01	1
2.746335e-01	1.206606e-01	5.028919e-02	1.502267e-01	2.817748e-01	5.302539e-01	1.722580e-01	1.695332e-01	1.786776e-01	1.575179e-01	4.617336e-01	2.924096e-01	2.003330e-01	7.216620e-02	9.862285e-04	4.291595e-01	8.684743e-01	9.725428e-01	9.356450e-01	8.160326e-01	1
7.300471e-01	8.319797e-01	9.686449e-01	5.950248e-01	3.105155e-01	4.998543e-02	5.165573e-03	1.203643e-01	1.019707e-01	2.649408e-01	0	1.072668e-01	2.082211e-01	3.754505e-01	4.054821e-01	4.474682e-01	4.675116e-01	4.799130e-01	6.272443e-01	9.142737e-01	0
5.235105e-01	9.606512e-01	7.945770e-01	3.339601e-01	1.544514e-01	7.421136e-02	9.724106e-04	4.691325e-02	1.477046e-01	2.113905e-01	4.671350e-02	7.288454e-02	1.492534e-01	3.571055e-01	5.891510e-01	6.854918e-01	7.209194e-01	8.331543e-01	9.480427e-01	9.899260e-01	1
2.575581e-01	1.260032e-01	7.310398e-02	2.261848e-01	3.566278e-01	5.225523e-01	1.156075e-01	8.268425e-02	9.203068e-02	1.103103e-01	3.070199e-01	2.015114e-01	1.273093e-01	8.350963e-02	2.518462e-03	2.932739e-01	7.178879e-01	9.417934e-01	9.762636e-01	9.733861e-01	1
1.595347e-01	6.569724e-02	5.994218e-02	1.707953e-01	2.935592e-01	4.478811e-01	3.809846e-02	5.851620e-02	1.032084e-01	1.213065e-01	3.512300e-01	2.474908e-01	1.458333e-01	5.787765e-02	1.488443e-02	3.584709e-01	7.808566e-01	9.566666e-01	9.697253e-01	8.679584e-01	1
1.874262e-01	7.829826e-02	5.161139e-02	1.719777e-01	3.024803e-01	4.350926e-01	5.959993e-02	5.843492e-02	1.098687e-01	1.193571e-01	3.259247e-01	2.228635e-01	1.606167e-01	7.327625e-02	1.296429e-04	3.735326e-01	7.792823e-01	9.555002e-01	9.822081e-01	8.901159e-01	1
1.743184e-01	7.583487e-02	6.199163e-02	1.836158e-01	3.234643e-01	4.635725e-01	8.070989e-02	8.561738e-02	1.168834e-01	1.282991e-01	4.170749e-01	3.105434e-01	1.897364e-01	9.174126e-02	2.504821e-04	3.628080e-01	8.233901e-01	9.861296e-01	9.558295e-01	8.875912e-01	1
2.110326e-01	9.829268e-02	6.168770e-02	1.958650e-01	3.371376e-01	4.856508e-01	1.205353e-01	1.338238e-01	1.455994e-01	1.577092e-01	5.501841e-01	4.142038e-01	2.431229e-01	1.196873e-01	8.354647e-04	3.645109e-01	8.391654e-01	9.875560e-01	9.475654e-01	8.041363e-01	1
1.756544e-01	6.528627e-02	4.803485e-02	1.447784e-01	2.839342e-01	4.460302e-01	3.925725e-02	4.252790e-02	6.646185e-02	9.334697e-02	1.692149e-01	9.187859e-02	3.973106e-02	2.125212e-02	1.747654e-02	3.472754e-01	7.615733e-01	9.471805e-01	9.815130e-01	9.369134e-01	1
2.124321e-01	7.984350e-02	5.749521e-02	1.782771e-01	2.960099e-01	4.708151e-01	9.079707e-02	9.777972e-02	1.210562e-01	1.360022e-01	3.788130e-01	2.793669e-01	1.683760e-01	7.813813e-02	2.922502e-04	3.711153e-01	8.030247e-01	9.716794e-01	9.687333e-01	8.966730e-01	1
2.197059e-01	1.011107e-01	5.964143e-02	2.021285e-01	3.355160e-01	4.693054e-01	9.250704e-02	8.058230e-02	1.188441e-01	1.547807e-01	3.212752e-01	2.243863e-01	1.436355e-01	6.512319e-02	8.847951e-04	3.909471e-01	8.298395e-01	9.864974e-01	9.493474e-01	9.016932e-01	1
0	1.699819e-01	1.359871e-01	3.893147e-01	7.920619e-01	8.174404e-01	2.149590e-01	2.198111e-01	2.532834e-01	3.247037e-01	1.362758e-02	3.178778e-02	1.278435e-01	1.818853e-01	2.729888e-01	6.141128e-01	9.811518e-01	9.409466e-01	8.680767e-01	8.097016e-01	0
8.104963e-01	5.947393e-01	5.134813e-01	4.689483e-01	3.630202e-01	2.557656e-01	1.110017e-01	5.465306e-02	7.901789e-02	2.019766e-01	8.726398e-01	8.094485e-01	8.226024e-01	8.065363e-01	8.116456e-01	9.529756e-01	9.837426e-01	7.824604e-01	4.746245e-01	1.588267e-01	1
3.631098e-01	9.731832e-02	7.269554e-02	3.004505e-01	6.311547e-01	9.910021e-01	7.135953e-01	8.255662e-01	8.679112e-01	8.255444e-01	4.865250e-01	3.374662e-01	2.024600e-01	8.001124e-02	3.481566e-02	4.433446e-01	8.105196e-01	9.970940e-01	9.210160e-01	7.905318e-01	1
3.050558e-01	9.960002e-02	6.321414e-02	2.645294e-01	5.041119e-01	7.667455e-01	4.499212e-01	5.441122e-01	6.265791e-01	6.367776e-01	5.382843e-01	3.855540e-01	2.040018e-01	9.769786e-02	6.374665e-04	4.246123e-01	8.729597e-01	9.737525e-01	9.582388e-01	8.206126e-01	1
3.499831e-01	1.349630e-01	5.844202e-02	2.379336e-01	4.769277e-01	7.564878e-01	4.465539e-01	5.519872e-01	6.223440e-01	5.686967e-01	4.941771e-01	3.464329e-01	2.303740e-01	1.072848e-01	1.484260e-02	3.485585e-01	7.854322e-01	9.745114e-01	9.569992e-01	8.204609e-01	1
1.409999e-01	1.115367e-02	8.890326e-02	2.798379e-01	4.917211e-01	7.223427e-01	3.029863e-01	3.010337e-01	2.795896e-01	2.029101e-01	5.090586e-01	3.373779e-01	2.067379e-01	1.049430e-01	1.224400e-02	3.694494e-01	8.150395e-01	9.819202e-01	9.812899e-01	8.402051e-01	1
4.851600e-02	9.656417e-03	8.227598e-02	2.448353e-01	4.171619e-01	5.840659e-01	1.276812e-01	5.076533e-02	2.788109e-02	5.532537e-03	4.481129e-01	3.081159e-01	2.013508e-01	7.074081e-02	1.419515e-02	3.684036e-01	7.784153e-01	9.489070e-01	9.764465e-01	9.096218e-01	1
1.697999e-01	9.598083e-02	1.133267e-01	2.384633e-01	3.357560e-01	4.844135e-01	6.766753e-02	2.315538e-02	3.019142e-02	5.519382e-02	4.254916e-01	3.145652e-01	1.919240e-01	1.152510e-01	2.609732e-03	3.743736e-01	8.365566e-01	9.977834e-01	9.866050e-01	8.717252e-01	1
2.192690e-01	1.178811e-01	1.103530e-01	2.218868e-01	2.989079e-01	4.014272e-01	2.109311e-02	1.933824e-02	5.571722e-02	1.262766e-01	2.487747e-01	1.823849e-01	8.792627e-02	2.534445e-02	6.115990e-02	4.767612e-01	8.657947e-01	9.803589e-01	9.647656e-01	9.192252e-01	1
2.388535e-01	7.572475e-02	7.936133e-02	1.546551e-01	2.841769e-01	4.288005e-01	5.653797e-02	5.032473e-02	5.359754e-02	4.543261e-02	2.992506e-01	2.197598e-01	1.487404e-01	1.224979e-01	5.214108e-02	5.456489e-01	9.492268e-01	9.678094e-01	6.651099e-01	2.522759e-01	0
1.794730e-01	8.702274e-02	7.012574e-02	2.219544e-01	3.755576e-01	5.247738e-01	1.366142e-01	1.637970e-01	1.832126e-01	2.325038e-01	5.227725e-02	1.891314e-02	1.624047e-02	6.396280e-02	1.647106e-01	4.539007e-01	8.012613e-01	9.746518e-01	9.987564e-01	9.593577e-01	0
7.490610e-01	9.632811e-01	8.672351e-01	7.944130e-01	6.668177e-01	4.013727e-01	1.077003e-01	8.501368e-03	2.937686e-02	1.212400e-01	0	2.378176e-01	5.422505e-01	7.949503e-01	9.346072e-01	9.936427e-01	9.733579e-01	7.645545e-01	7.236187e-01	7.960428e-01	0
7.493683e-01	9.516508e-01	8.436610e-01	4.898293e-01	3.502648e-01	2.187025e-01	6.800780e-02	5.615771e-03	9.251130e-02	2.915237e-01	1.116008e-01	1.060671e-01	5.738596e-01	9.224885e-01	9.983281e-01	9.288504e-01	8.100949e-01	6.427330e-01	4.447824e-01	1.844694e-01	0
1.400925e-01	2.530281e-01	3.990049e-01	5.518789e-01	6.442680e-01	6.648732e-01	2.363501e-01	8.987169e-02	8.147387e-03	1.487104e-02	5.370216e-01	3.777589e-01	2.302195e-01	8.137113e-02	9.371420e-03	3.640676e-01	7.995544e-01	9.683186e-01	9.706100e-01	8.472942e-01	1
3.774346e-01	3.361320e-01	3.382649e-01	3.654599e-01	3.756314e-01	3.895915e-01	4.449796e-02	2.337015e-02	8.227163e-02	1.516128e-01	5.640825e-01	4.172005e-01	2.530618e-01	1.185863e-01	0	3.342651e-01	7.600923e-01	9.522659e-01	9.659241e-01	8.789364e-01	1
4.232381e-01	2.229910e-01	1.281582e-01	1.360953e-01	2.146991e-01	3.265242e-01	2.919099e-02	1.052207e-01	2.516341e-01	3.131954e-01	3.098738e-01	2.226537e-01	1.562146e-01	8.259152e-02	9.774597e-04	2.933736e-01	6.817786e-01	9.131800e-01	9.856462e-01	9.721142e-01	1
3.266189e-01	8.388703e-02	4.237573e-02	1.548437e-01	3.480528e-01	5.990419e-01	2.879849e-01	3.472398e-01	4.189632e-01	3.986819e-01	5.565572e-01	4.533427e-01	2.916861e-01	1.194015e-01	1.029485e-05	3.187865e-01	7.691583e-01	9.524066e-01	9.601215e-01	8.517105e-01	1
7.351332e-02	1.428164e-02	8.165235e-02	2.279044e-01	4.129762e-01	6.283874e-01	1.858942e-01	1.393852e-01	1.265118e-01	7.345656e-02	3.697613e-01	2.399851e-01	1.340766e-01	6.477625e-02	1.349580e-04	3.777529e-01	8.042809e-01	9.899921e-01	9.617139e-01	8.427079e-01	1
1.969254e-01	1.048824e-01	1.088938e-01	2.112039e-01	3.137478e-01	4.567359e-01	3.333910e-02	6.002712e-03	6.631577e-02	1.203797e-01	5.636308e-01	3.887039e-01	2.397211e-01	1.001732e-01	6.005328e-04	3.461098e-01	8.066878e-01	9.760992e-01	9.383083e-01	8.827355e-01	1
2.521667e-01	9.414756e-02	9.022850e-02	1.638285e-01	2.811140e-01	4.125507e-01	3.305767e-02	2.027926e-02	6.521685e-02	1.170443e-01	2.912519e-01	2.218230e-01	1.498883e-01	7.393091e-02	7.685194e-04	3.511678e-01	7.897188e-01	9.966849e-01	9.362422e-01	7.655006e-01	1
2.211585e-01	8.166910e-02	5.354709e-02	1.552571e-01	2.946455e-01	4.558061e-01	8.506292e-02	7.917012e-02	1.301729e-01	1.600506e-01	4.933280e-01	3.495355e-01	2.097200e-01	9.864401e-02	2.477485e-03	3.682758e-01	7.744373e-01	9.588524e-01	9.606698e-01	8.658493e-01	1
1.914085e-01	5.293782e-02	6.545842e-02	1.977856e-01	3.649072e-01	5.464762e-01	1.602852e-01	1.603567e-01	1.974560e-01	1.951670e-01	4.398390e-01	2.634509e-01	1.840158e-01	8.402210e-02	9.766604e-06	3.314590e-01	7.496305e-01	9.536855e-01	9.920018e-01	9.332166e-01	1
3.071083e-01	2.388908e-01	2.335220e-01	3.463615e-01	4.202241e-01	4.414076e-01	7.119536e-02	5.683373e-02	5.471172e-02	5.875034e-03	7.559976e-03	3.764277e-02	7.022288e-02	1.020940e-01	9.364845e-02	3.986392e-01	7.483964e-01	9.319975e-01	9.933610e-01	9.263602e-01	1
1.554646e-01	8.254919e-02	1.049041e-01	1.509401e-01	2.614610e-01	4.310221e-01	3.530120e-02	2.471458e-02	1.929668e-03	4.578105e-02	5.862402e-01	3.438076e-01	1.969497e-01	5.636860e-02	1.829211e-02	4.274191e-01	9.160453e-01	9.619209e-01	8.331824e-01	7.372843e-01	1
2.479536e-01	1.294025e-01	1.487519e-01	2.408583e-01	3.368554e-01	4.299309e-01	1.298273e-02	5.901180e-02	1.357048e-01	1.780573e-01	4.770728e-01	1.214620e-01	6.799365e-03	4.303932e-02	2.343448e-02	2.061774e-01	5.617931e-01	8.492631e-01	9.845948e-01	8.965300e-01	1
2.165588e-01	9.023722e-02	4.352365e-02	1.510727e-01	2.592270e-01	4.368300e-01	3.687729e-02	3.207988e-05	3.464394e-02	7.875087e-02	2.567865e-01	1.553498e-01	9.921669e-02	5.382996e-02	1.116176e-02	3.788192e-01	8.350898e-01	9.716862e-01	9.663061e-01	8.615891e-01	0
1.534490e-01	6.161970e-02	6.491911e-02	1.744379e-01	2.915053e-01	4.608350e-01	4.642594e-02	6.323309e-02	1.181506e-01	1.269772e-01	5.430567e-01	3.715308e-01	2.513533e-01	1.042534e-01	3.053165e-06	3.286173e-01	7.552913e-01	9.681647e-01	9.521325e-01	8.617374e-01	1
1.765987e-01	3.549172e-02	5.802209e-02	1.778295e-01	3.210390e-01	5.059235e-01	7.362576e-02	8.205515e-02	1.404423e-01	1.776648e-01	4.437312e-01	3.217691e-01	2.007308e-01	9.272022e-02	9.250098e-03	3.533701e-01	7.458688e-01	9.553938e-01	9.814998e-01	8.650087e-01	1
1.445554e-01	1.416737e-02	4.214786e-02	1.379161e-01	3.208013e-01	4.843517e-01	6.178326e-02	4.067391e-02	9.338571e-02	1.168866e-01	4.034916e-01	2.765194e-01	1.803488e-01	7.521071e-02	3.010397e-03	3.459033e-01	7.834633e-01	9.755284e-01	9.960251e-01	9.012254e-01	1
1.405614e-01	1.642205e-02	4.775740e-02	1.431178e-01	2.991540e-01	5.039240e-01	5.440144e-02	4.372438e-02	9.037522e-02	1.169763e-01	3.740133e-01	2.431369e-01	1.504094e-01	7.372294e-02	7.536257e-03	3.263971e-01	7.313625e-01	9.335479e-01	9.998160e-01	9.387107e-01	1
2.855071e-01	1.464435e-01	5.492815e-02	1.967213e-01	2.953915e-01	4.715739e-01	4.944939e-02	5.240836e-02	1.166926e-01	1.287184e-01	2.399201e-01	1.427950e-01	7.135104e-02	2.912636e-02	3.369431e-03	2.587183e-01	6.651039e-01	8.964145e-01	9.871052e-01	9.769065e-01	1
1.211530e-01	5.746010e-03	7.008730e-02	1.764272e-01	3.286491e-01	4.995135e-01	7.293125e-02	8.792630e-02	1.218748e-01	1.477222e-01	4.785809e-01	3.319583e-01	2.366630e-01	1.094572e-01	1.116752e-02	3.479921e-01	7.682070e-01	9.752243e-01	9.923353e-01	8.910027e-01	1
1.426791e-01	5.007022e-02	5.558514e-02	1.618900e-01	2.968030e-01	4.555963e-01	3.602900e-02	7.438178e-03	5.801122e-02	6.372454e-02	6.500040e-01	4.676718e-01	2.976918e-01	1.698029e-01	4.766422e-04	2.889432e-01	7.133548e-01	9.355820e-01	9.729524e-01	8.907323e-01	1
1.686811e-01	5.163746e-02	5.889531e-02	2.232299e-01	3.769506e-01	5.434187e-01	1.272205e-01	1.139455e-01	1.370803e-01	1.396741e-01	4.592734e-01	3.124863e-01	1.803482e-01	7.881013e-02	1.982689e-02	3.178512e-01	7.147058e-01	9.327275e-01	9.928908e-01	9.195854e-01	1
3.751299e-01	5.542736e-01	5.528613e-01	2.299073e-01	3.818592e-01	6.161780e-01	4.846489e-01	5.759599e-01	6.490390e-01	2.861308e-01	4.935730e-01	4.381404e-01	2.561625e-01	9.886605e-02	6.007377e-03	2.713703e-01	5.805414e-01	9.295548e-01	9.558600e-01	8.623378e-01	1
4.839764e-01	6.021905e-01	3.312985e-01	9.931886e-02	1.397389e-01	5.952496e-01	3.697029e-01	3.520187e-01	2.489141e-01	4.760068e-01	1.773296e-02	1.303760e-03	1.050256e-01	9.594034e-02	1.517331e-01	2.556099e-01	4.803718e-01	7.279235e-01	8.358926e-01	8.189378e-01	0
5.598319e-01	9.035325e-01	8.675600e-01	7.437208e-01	7.625497e-01	6.601555e-01	6.664055e-01	6.475187e-01	6.969025e-01	7.311240e-01	2.885171e-01	2.831980e-01	4.383658e-01	6.264175e-01	9.750809e-01	9.718531e-01	8.898406e-01	7.819365e-01	5.640601e-01	2.966750e-01	1
4.255048e-01	8.713763e-01	8.097463e-01	5.074434e-01	5.706274e-01	4.941391e-01	1.937256e-01	6.683154e-03	1.280589e-01	4.215303e-01	0	2.949255e-01	6.794534e-01	9.013215e-01	9.881650e-01	8.604817e-01	6.870393e-01	4.463577e-01	2.541864e-01	1.374820e-01	0
2.845066e-01	4.232063e-01	3.792059e-01	4.370443e-01	4.849016e-01	4.778678e-01	2.196329e-02	3.944009e-02	1.153186e-01	2.047756e-01	9.606141e-01	9.739582e-01	7.644088e-01	2.907716e-01	1.338303e-03	2.865527e-01	6.269338e-01	7.893564e-01	7.339280e-01	5.925086e-01	0
2.660011e-01	1.897543e-01	1.062117e-01	3.178452e-01	4.579063e-01	6.699770e-01	1.694571e-01	2.254211e-01	2.724175e-01	3.630361e-01	4.569949e-01	2.894833e-01	1.682200e-01	6.526717e-02	3.417059e-03	3.100525e-01	7.265239e-01	9.790165e-01	9.996436e-01	9.609555e-01	1
2.627853e-01	1.534111e-01	8.677197e-02	2.868471e-01	4.152770e-01	6.472905e-01	1.298084e-01	1.206512e-01	1.095298e-01	1.661562e-01	2.416054e-01	1.677521e-01	1.079593e-01	3.483935e-02	3.903146e-03	2.324659e-01	5.893166e-01	8.456539e-01	9.742738e-01	9.789147e-01	0
2.680326e-01	1.581894e-01	2.003622e-01	2.617581e-01	6.079248e-02	3.530025e-01	4.231409e-02	2.757203e-02	1.454077e-01	4.952449e-01	1.893462e-01	1.499829e-01	8.126853e-02	5.253871e-02	3.474412e-02	3.556773e-01	7.051145e-01	9.397924e-01	9.965222e-01	7.201424e-01	0
7.375124e-01	9.064676e-01	7.400993e-01	4.990763e-01	4.409596e-01	2.259565e-01	8.150852e-02	5.101121e-03	1.559733e-01	1.733834e-01	3.341472e-01	3.469262e-01	5.526175e-01	8.150723e-01	9.804008e-01	9.891347e-01	9.142564e-01	8.497516e-01	7.346935e-01	2.721215e-01	0
8.773692e-01	7.386717e-01	6.841643e-01	6.997691e-01	5.177059e-01	3.728042e-01	8.908212e-02	1.077501e-01	5.271332e-01	7.386916e-01	7.765750e-01	8.253173e-01	5.358847e-01	1.783851e-01	1.868721e-03	2.587861e-01	6.807642e-01	9.245655e-01	8.643655e-01	6.347429e-01	0
7.040735e-01	6.808725e-01	6.298296e-01	4.247230e-01	3.905585e-01	4.656022e-01	1.250024e-01	1.697298e-01	1.756143e-01	2.105056e-01	8.780379e-01	6.212369e-01	4.270357e-01	2.316287e-01	7.587017e-03	3.257400e-01	7.536643e-01	9.747569e-01	9.694698e-01	7.831899e-01	0
3.033322e-02	2.794822e-01	4.748535e-01	4.760998e-01	4.894606e-01	6.216958e-01	3.518131e-01	3.239539e-01	4.367136e-01	5.262950e-01	8.032203e-01	5.693486e-01	2.179122e-01	9.657376e-02	2.308188e-02	2.815161e-01	6.421373e-01	9.135437e-01	9.936965e-01	9.487191e-01	1
5.653358e-01	8.347663e-01	8.903016e-01	7.894534e-01	1.290523e-01	2.715850e-01	6.011541e-01	7.695660e-01	5.953435e-01	7.512097e-01	1	8.004576e-01	6.323596e-01	4.127981e-01	2.469702e-01	7.120417e-02	5.027735e-03	2.707752e-01	5.852043e-01	6.752911e-01	1
5.750574e-01	3.732767e-01	8.868824e-02	2.897387e-01	4.849769e-01	7.017185e-01	3.137088e-01	2.854918e-01	3.129693e-01	3.684691e-01	4.204997e-02	1.883863e-01	6.701014e-01	9.231746e-01	5.840969e-01	7.026287e-01	9.990074e-01	6.282102e-01	3.943895e-01	3.742932e-01	0
5.554696e-01	4.256869e-01	3.147267e-01	5.741111e-01	7.020295e-01	9.111738e-01	4.439232e-01	5.203365e-01	6.019019e-01	2.060149e-01	4.055800e-01	2.828647e-01	1.539636e-01	8.743000e-02	1.723997e-03	1.732130e-01	5.493976e-01	8.676487e-01	9.958339e-01	9.996398e-01	1
0	3.075091e-01	7.846549e-02	1.838391e-01	3.689408e-01	7.260233e-01	2.994242e-01	1.940674e-01	1.728051e-01	1.137879e-01	6.010370e-01	4.647604e-01	2.951344e-01	1.275071e-01	1.507304e-04	2.427526e-01	6.716277e-01	9.246318e-01	9.884721e-01	8.796237e-01	1
2.634669e-01	1.812008e-01	9.234056e-02	2.896561e-01	4.493852e-01	6.947367e-01	1.274119e-01	1.087231e-01	1.905837e-01	1.850403e-01	4.321283e-01	3.025543e-01	1.814241e-01	7.639003e-02	0	2.234696e-01	6.388016e-01	9.257338e-01	9.916459e-01	9.128929e-01	1
2.857828e-01	1.649311e-01	8.753632e-02	3.003424e-01	4.626234e-01	6.661219e-01	1.667433e-01	1.592148e-01	2.336908e-01	2.321790e-01	4.198103e-01	2.930652e-01	1.749368e-01	6.814376e-02	1.149136e-03	2.012219e-01	6.273319e-01	8.922565e-01	9.886947e-01	9.455717e-01	1
2.818294e-01	1.461610e-01	7.868897e-02	2.767438e-01	4.001159e-01	6.328873e-01	1.064691e-01	9.200134e-02	1.505890e-01	1.556218e-01	4.261795e-01	2.815954e-01	1.738371e-01	7.392845e-02	7.941079e-03	1.938088e-01	6.078946e-01	8.981626e-01	9.887950e-01	9.690472e-01	1
2.343107e-01	1.493461e-01	7.885073e-02	2.821224e-01	4.339057e-01	6.861391e-01	1.293733e-01	1.159788e-01	1.747893e-01	1.891804e-01	3.495460e-01	2.365684e-01	1.473306e-01	5.589868e-02	2.716039e-03	2.038793e-01	5.904527e-01	8.710075e-01	9.898487e-01	9.523992e-01	1
2.809530e-01	1.661243e-01	7.947458e-02	2.792755e-01	4.434747e-01	7.029599e-01	1.757492e-01	1.563690e-01	2.224635e-01	2.112815e-01	4.247922e-01	2.910497e-01	1.674098e-01	9.172090e-02	4.679901e-03	1.854317e-01	5.804788e-01	8.704311e-01	9.968965e-01	9.534994e-01	1
2.636896e-01	1.576600e-01	6.959651e-02	3.014518e-01	4.321918e-01	6.473869e-01	1.488007e-01	1.120565e-01	1.518054e-01	2.078800e-01	1.049568e-01	8.073876e-02	1.503759e-02	6.443735e-03	2.525352e-02	1.177002e-01	2.966623e-01	5.026493e-01	7.098904e-01	8.786516e-01	1
3.590334e-01	3.107134e-01	2.032433e-01	2.072068e-01	1.253077e-01	3.361052e-01	1.052284e-01	1.226895e-01	1.678240e-01	1.803255e-01	1	6.970486e-01	3.894069e-01	1.950934e-01	2.698318e-02	8.701927e-02	2.978787e-01	4.885707e-01	4.995608e-01	4.227288e-01	0
3.361580e-01	1.714117e-01	9.720905e-02	3.039943e-01	4.947092e-01	6.647841e-01	1.622281e-01	1.525924e-01	1.922245e-01	1.488460e-01	4.627054e-01	3.240532e-01	1.901761e-01	9.586069e-02	3.278808e-05	2.794176e-01	6.824183e-01	9.402037e-01	9.814984e-01	8.842235e-01	1
5.386884e-01	8.766162e-01	4.601878e-01	1.599989e-01	1.033466e-01	3.525013e-02	3.271595e-02	5.700334e-02	9.918496e-02	9.123250e-02	1.255123e-02	1.276669e-01	5.372174e-01	8.539591e-01	9.991536e-01	9.584782e-01	8.859444e-01	8.088946e-01	6.946819e-01	5.776846e-01	1
2.157633e-01	1.052035e-01	5.009875e-02	2.453053e-01	4.090757e-01	5.434797e-01	5.861283e-02	7.800958e-02	1.751866e-01	2.275839e-01	2.945601e-01	2.144253e-01	1.014960e-01	2.547614e-02	6.952509e-03	2.908176e-01	6.161436e-01	8.505628e-01	9.895011e-01	9.585840e-01	1
2.246040e-01	1.135184e-01	4.985535e-02	2.170955e-01	3.538809e-01	5.413686e-01	1.036531e-01	1.359109e-01	1.301450e-01	1.395448e-01	1	7.389167e-01	4.648519e-01	2.093775e-01	3.094834e-03	2.042209e-01	4.791929e-01	4.823473e-01	3.362685e-01	1.290748e-01	1
1.626932e-01	6.367694e-02	4.740912e-02	2.089878e-01	3.395409e-01	5.044728e-01	5.645887e-02	7.857848e-02	1.076237e-01	1.307713e-01	1.089604e-01	7.511211e-02	2.529065e-02	2.028325e-02	1.314787e-02	3.099769e-01	7.081669e-01	9.441913e-01	9.674357e-01	8.481756e-01	1
1.879992e-01	8.948672e-02	4.749600e-02	1.933230e-01	3.361842e-01	5.042759e-01	5.728326e-02	5.240389e-02	1.579159e-01	9.261283e-02	8.480149e-01	6.919456e-01	4.212727e-01	1.533521e-01	1.744836e-03	1.998902e-01	4.979793e-01	7.731856e-01	9.881198e-01	9.375897e-01	1
2.048944e-01	1.184216e-01	5.732967e-02	2.273966e-01	3.668748e-01	5.374079e-01	9.672017e-02	8.704791e-02	1.162691e-01	1.482994e-01	2.616994e-01	2.249003e-01	1.794733e-01	1.138870e-01	8.106074e-03	1.804655e-01	4.967520e-01	6.811390e-01	8.215359e-01	8.846932e-01	0
1.947107e-01	1.018031e-01	6.947364e-02	2.335640e-01	3.609231e-01	5.504860e-01	1.155466e-01	1.064982e-01	1.094369e-01	1.348984e-01	2.229226e-01	1.730034e-01	1.271837e-01	5.665116e-02	1.524975e-03	3.211512e-01	7.509142e-01	9.851046e-01	9.822014e-01	8.367180e-01	1
2.022639e-01	9.108928e-02	7.771966e-02	2.122588e-01	3.599283e-01	5.508590e-01	1.013553e-01	8.547393e-02	1.297753e-01	1.330249e-01	3.382263e-01	2.380161e-01	1.511003e-01	7.004270e-02	6.438388e-05	2.821368e-01	7.005558e-01	9.245021e-01	9.907061e-01	9.103063e-01	1
2.170711e-01	1.061359e-01	7.615569e-02	2.427222e-01	3.807744e-01	5.669850e-01	1.134246e-01	1.222422e-01	1.675962e-01	1.660597e-01	4.709445e-01	3.565395e-01	2.183703e-01	1.171440e-01	2.668253e-03	2.758804e-01	6.985628e-01	9.487838e-01	9.756862e-01	8.479368e-01	0
2.058116e-01	1.028733e-01	9.640203e-02	2.874996e-01	4.174620e-01	5.843519e-01	1.066503e-01	9.889352e-02	1.265137e-01	1.465264e-01	3.785370e-01	2.311172e-01	1.306118e-01	6.432223e-02	7.119583e-04	3.038259e-01	7.745099e-01	9.708223e-01	9.538553e-01	8.603147e-01	0
1.827185e-01	1.045928e-01	7.427723e-02	2.491375e-01	4.211643e-01	5.843318e-01	1.616774e-02	8.693741e-02	1.377569e-01	1.508600e-01	4.781860e-01	3.459189e-01	1.977755e-01	8.440527e-02	0	3.112238e-01	7.531805e-01	9.753376e-01	9.848212e-01	9.164105e-01	1
1.945680e-01	1.148701e-01	8.844949e-02	2.583533e-01	3.923113e-01	6.128011e-01	1.138465e-01	1.580622e-01	1.500528e-01	1.443678e-01	5.474928e-01	3.673810e-01	1.882627e-01	6.887878e-02	2.173165e-03	3.211014e-01	7.496455e-01	9.626940e-01	9.704894e-01	8.757419e-01	1
2.042425e-01	8.576126e-02	7.225288e-02	2.355676e-01	3.948171e-01	5.379490e-01	8.844421e-02	8.251574e-02	1.196701e-01	1.393219e-01	4.224423e-01	2.675991e-01	1.658393e-01	7.632597e-02	4.697932e-03	3.493547e-01	7.778703e-01	9.743542e-01	9.716562e-01	8.822643e-01	1
2.052594e-01	8.625736e-02	6.274964e-02	2.227358e-01	3.655696e-01	5.411467e-01	8.875454e-02	9.380376e-02	1.418129e-01	1.453270e-01	4.039889e-01	2.572581e-01	1.423561e-01	5.615331e-02	1.184677e-03	3.614970e-01	7.697440e-01	9.774872e-01	9.812069e-01	8.688633e-01	1
1.814057e-01	1.013994e-01	6.952346e-02	2.203799e-01	3.579808e-01	5.740302e-01	1.187268e-01	1.136923e-01	1.618032e-01	1.693254e-01	3.834178e-01	2.557353e-01	1.575641e-01	5.892547e-02	3.850743e-03	3.469040e-01	7.692307e-01	9.624211e-01	9.726167e-01	8.767299e-01	1
2.286802e-01	1.133768e-01	6.652450e-02	2.542163e-01	3.968452e-01	5.615884e-01	1.072691e-01	1.195587e-01	1.444784e-01	1.543476e-01	3.211542e-02	2.132811e-02	7.139854e-02	2.742509e-01	4.107755e-01	7.255228e-01	9.700356e-01	9.821183e-01	7.874787e-01	5.433234e-01	1
2.266714e-01	1.310475e-01	8.392566e-02	2.824586e-01	4.161449e-01	6.130176e-01	1.100312e-01	1.125840e-01	1.402190e-01	1.507360e-01	1.868454e-01	1.006489e-01	4.690733e-02	1.432092e-02	3.043275e-02	4.320253e-01	8.503056e-01	9.964762e-01	8.608441e-01	6.057507e-01	1
2.066452e-01	9.934315e-02	8.410069e-02	2.450491e-01	3.856711e-01	6.165963e-01	1.104741e-01	1.149653e-01	1.451619e-01	1.653788e-01	1.532116e-01	6.829877e-02	2.573689e-02	1.324579e-02	2.342660e-02	3.245301e-01	7.230326e-01	9.309774e-01	1	9.623413e-01	1
2.075050e-01	1.214826e-01	7.259381e-02	2.535938e-01	3.755449e-01	5.818658e-01	1.172831e-01	1.159211e-01	1.424412e-01	1.386518e-01	4.827827e-01	3.302056e-01	1.981161e-01	9.275584e-02	2.781216e-04	3.255049e-01	7.498917e-01	9.627278e-01	9.936645e-01	9.097053e-01	1
1.914284e-01	1.110451e-01	6.917501e-02	2.404246e-01	3.755960e-01	5.900149e-01	7.693767e-02	6.880337e-02	1.144052e-01	1.225848e-01	3.333134e-01	2.154654e-01	1.223033e-01	5.430314e-02	7.902521e-04	3.025833e-01	7.033776e-01	9.561047e-01	9.941756e-01	9.165195e-01	1
1.896181e-01	1.120557e-01	5.637023e-02	2.458119e-01	3.951204e-01	5.997929e-01	9.302892e-02	8.937705e-02	1.342343e-01	1.628038e-01	4.184083e-01	3.073893e-01	1.957383e-01	9.495628e-02	1.625517e-04	2.901448e-01	6.941239e-01	9.311885e-01	9.996287e-01	9.272571e-01	1
2.147385e-01	1.208549e-01	7.261782e-02	2.590731e-01	4.002087e-01	5.833008e-01	1.055040e-01	1.158167e-01	1.467854e-01	1.785196e-01	4.395657e-01	3.065115e-01	1.770008e-01	8.409941e-02	6.892468e-04	2.786207e-01	6.824809e-01	9.239501e-01	9.939617e-01	9.148226e-01	1
1.988134e-01	8.335470e-02	6.984836e-02	2.478808e-01	3.982309e-01	5.973738e-01	6.590881e-02	9.668424e-02	1.613738e-01	1.610477e-01	3.511554e-01	2.286885e-01	1.268281e-01	6.655364e-02	3.344501e-04	2.757384e-01	6.842791e-01	9.137718e-01	9.978386e-01	9.080185e-01	1
2.022901e-01	1.081800e-01	6.865919e-02	2.478249e-01	3.972452e-01	5.907451e-01	1.177079e-01	1.064450e-01	1.405567e-01	1.362409e-01	4.579959e-01	2.964885e-01	1.862543e-01	8.555556e-02	1.387398e-03	2.934308e-01	7.009270e-01	9.357050e-01	9.957545e-01	9.161651e-01	1
2.078854e-01	1.041901e-01	7.545015e-02	2.556816e-01	4.000443e-01	5.986678e-01	9.771721e-02	1.107499e-01	1.832710e-01	1.729956e-01	4.007257e-01	2.685549e-01	1.757631e-01	7.748333e-02	0	3.004334e-01	6.913510e-01	9.382266e-01	9.864249e-01	9.046155e-01	1
2.434595e-01	1.310042e-01	7.130584e-02	2.266798e-01	3.697836e-01	6.188777e-01	8.837323e-02	9.519796e-02	1.266202e-01	1.479075e-01	4.173138e-01	2.781126e-01	1.714799e-01	7.708716e-02	7.075262e-04	2.994317e-01	6.773908e-01	9.225687e-01	9.995021e-01	8.962994e-01	1
1.975433e-01	1.323489e-01	7.662716e-02	2.377936e-01	4.103326e-01	6.329212e-01	7.838589e-02	8.855391e-02	1.294088e-01	1.387668e-01	5.242262e-01	3.522799e-01	2.174816e-01	9.682241e-02	9.750436e-04	2.914091e-01	6.990101e-01	9.343770e-01	9.813237e-01	8.689788e-01	1
2.238446e-01	1.355739e-01	7.114545e-02	2.762999e-01	4.008071e-01	5.885800e-01	1.187469e-01	1.433552e-01	1.695696e-01	1.685704e-01	4.877801e-01	3.519110e-01	2.356054e-01	1.094411e-01	1.368123e-03	2.914860e-01	7.233908e-01	9.457879e-01	9.988227e-01	9.238079e-01	1
1.860261e-01	1.127730e-01	7.499298e-02	2.546705e-01	3.976316e-01	6.093795e-01	9.850962e-02	7.595355e-02	1.484825e-01	1.527350e-01	3.700227e-01	2.369383e-01	1.572097e-01	7.612645e-02	8.771451e-05	2.912960e-01	6.825224e-01	9.219984e-01	9.861937e-01	9.092172e-01	1
2.189193e-01	1.408359e-01	9.672175e-02	2.604856e-01	4.122862e-01	6.055878e-01	1.128549e-01	1.022101e-01	1.317124e-01	7.186760e-02	4.163878e-01	2.824864e-01	1.799282e-01	8.696518e-02	1.289700e-03	2.910214e-01	6.943523e-01	9.458688e-01	9.895134e-01	8.889929e-01	0
2.342277e-01	1.295824e-01	7.383118e-02	2.370299e-01	3.308237e-01	6.827077e-01	2.430462e-01	3.279135e-01	3.745468e-01	3.623114e-01	3.339782e-01	2.034322e-01	1.047828e-01	5.389830e-02	1.036216e-03	2.773030e-01	6.788754e-01	9.033894e-01	9.957819e-01	9.511363e-01	0
5.872701e-01	5.697109e-01	4.713369e-01	4.173939e-01	3.522439e-01	3.671428e-01	1.766069e-02	9.809371e-02	2.015152e-01	2.358751e-01	9.685972e-01	6.985446e-01	4.202604e-01	1.252399e-01	2.814646e-02	2.524312e-01	7.154552e-01	9.641803e-01	9.890880e-01	8.684106e-01	0
4.648276e-01	4.830637e-01	5.363086e-01	5.170546e-01	4.156431e-01	3.189601e-01	2.644020e-02	1.739882e-01	3.321306e-01	4.675103e-01	1	7.080741e-01	4.552277e-01	2.955007e-01	6.131745e-02	2.411266e-01	4.930122e-01	5.089265e-01	3.538637e-01	1.334652e-01	0
4.356471e-01	1.825089e-01	7.588770e-02	1.632662e-01	2.786290e-01	4.206154e-01	2.448735e-02	1.087574e-01	1.655569e-01	1.971438e-01	4.473162e-01	3.363182e-01	2.373998e-01	9.231615e-02	0	3.247373e-01	7.200448e-01	9.416921e-01	9.938188e-01	9.699387e-01	0
1.189819e-01	4.566196e-02	8.109104e-02	2.641801e-01	3.624787e-01	5.134909e-01	6.149318e-02	7.593782e-02	1.001153e-01	9.039583e-02	5.535384e-01	3.919978e-01	2.363797e-01	9.952667e-02	3.262216e-04	3.210934e-01	7.546022e-01	9.713154e-01	9.543311e-01	8.477802e-01	0
1.869379e-01	6.331871e-02	6.878672e-02	2.045718e-01	3.629514e-01	5.866026e-01	9.623755e-02	9.954081e-02	1.241170e-01	1.399415e-01	4.826385e-01	3.299811e-01	1.851547e-01	7.552342e-02	3.708219e-04	3.217395e-01	7.485507e-01	9.801853e-01	9.556334e-01	8.139023e-01	1
1.562671e-01	8.831230e-02	7.223314e-02	1.897922e-01	3.002199e-01	4.846159e-01	5.579249e-02	2.492730e-02	1.117243e-01	1.314310e-01	4.485974e-01	2.896702e-01	1.698415e-01	5.547934e-02	4.383386e-04	3.409263e-01	7.739197e-01	9.842303e-01	9.625948e-01	8.414177e-01	1
2.209839e-01	1.134614e-01	8.920864e-02	2.375731e-01	3.731229e-01	5.136880e-01	1.011843e-01	9.883405e-02	1.355831e-01	1.702981e-01	4.449618e-01	3.005749e-01	1.825977e-01	8.417307e-02	5.227554e-04	3.204514e-01	7.869256e-01	9.944233e-01	9.472892e-01	8.366398e-01	1
2.292438e-01	1.091367e-01	8.509529e-02	2.608264e-01	4.151096e-01	5.709476e-01	1.191935e-01	7.332052e-02	1.253757e-01	1.506842e-01	4.910499e-01	3.707799e-01	2.198779e-01	1.126408e-01	1.563933e-03	3.129520e-01	7.785007e-01	9.955666e-01	9.673326e-01	8.617674e-01	0
2.126836e-01	9.104558e-02	7.256031e-02	1.909011e-01	3.487501e-01	5.218353e-01	7.715012e-02	1.153924e-01	1.383115e-01	1.436029e-01	3.346769e-01	2.234096e-01	1.323897e-01	7.083215e-02	4.076527e-04	3.163186e-01	7.369437e-01	9.591393e-01	9.809417e-01	9.082244e-01	1
2.070813e-01	8.071528e-02	6.405683e-02	2.448973e-01	3.432450e-01	5.324100e-01	9.174615e-02	8.432979e-02	1.026479e-01	1.336510e-01	4.428874e-01	3.252354e-01	2.018904e-01	9.224791e-02	8.693859e-05	3.029375e-01	7.410342e-01	9.639266e-01	9.576265e-01	8.588198e-01	0
2.057414e-01	1.079540e-01	6.978915e-02	2.240646e-01	3.642248e-01	5.436654e-01	7.284388e-02	9.542391e-02	1.417136e-01	1.629848e-01	4.262205e-01	3.040731e-01	1.792099e-01	8.985233e-02	1.931123e-03	3.094918e-01	7.504436e-01	9.734631e-01	9.753605e-01	8.678293e-01	1
1.727621e-01	6.293992e-02	7.317198e-02	1.925152e-01	3.237253e-01	5.267274e-01	5.619600e-02	4.883598e-02	9.639793e-02	1.180870e-01	4.159446e-01	2.917880e-01	1.706106e-01	8.310248e-02	2.716658e-03	3.081607e-01	7.185294e-01	9.592333e-01	9.706285e-01	8.606337e-01	1
1.992648e-01	9.587652e-02	6.985623e-02	2.592553e-01	4.097654e-01	6.230482e-01	1.922093e-01	1.668632e-01	1.929041e-01	1.895926e-01	3.892948e-01	2.649461e-01	1.484261e-01	7.692221e-02	0	2.990870e-01	7.238936e-01	9.624641e-01	9.843890e-01	8.891306e-01	1
2.170311e-01	1.154484e-01	6.943247e-02	2.172975e-01	3.597752e-01	5.480889e-01	9.030593e-02	7.874403e-02	1.279706e-01	1.426464e-01	3.478976e-01	2.520768e-01	1.382140e-01	5.224551e-02	2.257503e-04	2.758167e-01	6.929013e-01	9.257564e-01	9.941148e-01	9.033961e-01	1
2.235168e-01	8.814900e-02	5.823322e-02	1.928893e-01	3.346439e-01	5.276129e-01	9.492189e-02	6.857326e-02	1.321689e-01	1.361982e-01	3.576491e-01	2.444795e-01	1.556945e-01	6.561094e-02	6.992675e-04	2.749798e-01	6.986186e-01	9.378583e-01	9.880227e-01	9.058935e-01	1
1.997533e-01	8.126883e-02	6.110708e-02	1.962471e-01	3.641232e-01	5.685917e-01	8.465788e-02	7.029133e-02	1.010216e-01	1.421420e-01	3.812989e-01	2.556458e-01	1.648943e-01	8.549062e-02	1.275241e-03	2.762666e-01	6.961473e-01	9.413846e-01	9.991949e-01	9.338049e-01	1
2.408865e-01	1.207623e-01	8.106686e-02	2.315904e-01	3.548684e-01	5.644277e-01	1.172136e-01	1.018463e-01	1.338324e-01	1.502283e-01	4.167000e-01	3.041490e-01	1.899694e-01	9.435312e-02	1.770517e-03	2.705070e-01	6.935149e-01	9.544299e-01	9.936675e-01	9.193440e-01	1
2.806221e-01	1.793673e-01	7.415267e-02	2.869027e-01	4.466016e-01	6.467647e-01	2.076881e-01	2.159963e-01	2.534574e-01	2.742964e-01	3.634668e-01	2.405861e-01	1.646928e-01	7.051931e-02	4.187437e-03	2.576774e-01	7.021659e-01	9.469989e-01	9.875326e-01	9.306987e-01	1
5.511277e-01	4.231099e-01	5.022805e-02	2.347959e-01	3.831992e-01	4.858346e-01	9.853072e-02	1.021966e-01	1.276642e-01	2.538243e-01	3.617411e-01	2.590522e-01	1.273230e-01	4.925895e-02	2.838315e-03	2.647150e-01	6.903428e-01	9.238363e-01	9.817250e-01	9.222551e-01	1
4.545760e-01	2.867470e-01	2.158780e-01	3.297263e-01	6.113779e-01	7.370891e-01	2.117012e-01	9.629136e-02	1.210611e-01	1.349825e-01	1.887672e-01	1.149304e-01	5.399420e-02	2.278354e-02	4.441400e-03	2.323015e-01	6.098625e-01	8.608232e-01	9.886277e-01	9.800491e-01	1
1.779665e-01	6.279713e-02	8.111611e-02	2.538324e-01	3.929660e-01	5.578053e-01	9.623768e-02	6.462623e-02	1.011101e-01	1.594200e-01	6.984693e-01	5.103847e-01	3.210763e-01	1.583351e-01	1.016165e-02	2.536764e-01	6.933599e-01	9.497815e-01	9.926013e-01	8.779503e-01	1
2.357315e-01	9.488330e-02	7.333755e-02	2.469518e-01	3.917179e-01	5.818417e-01	1.144889e-01	7.235835e-02	1.385711e-01	1.397042e-01	5.549783e-01	3.962050e-01	2.487023e-01	1.122535e-01	6.081653e-03	2.663351e-01	6.988106e-01	9.487653e-01	9.847010e-01	8.966519e-01	1
2.176617e-01	1.090407e-01	7.179232e-02	2.713915e-01	4.321638e-01	5.926856e-01	1.174680e-01	1.056919e-01	1.278262e-01	1.572176e-01	4.615151e-01	3.313101e-01	1.974299e-01	1.028742e-01	0	2.697335e-01	7.183508e-01	9.535038e-01	9.876893e-01	9.094614e-01	0
2.440251e-01	1.222652e-01	7.232554e-02	2.738288e-01	3.977298e-01	5.798461e-01	1.495428e-01	1.324352e-01	1.884858e-01	2.010798e-01	3.965288e-01	2.577378e-01	1.597551e-01	7.917735e-02	1.701908e-03	2.639197e-01	6.925540e-01	9.436486e-01	9.884862e-01	9.190604e-01	1
1.763058e-01	9.218598e-02	1.638107e-01	3.056300e-01	4.293567e-01	6.013305e-01	1.257045e-01	2.231278e-01	3.234150e-01	2.735826e-01	3.140376e-01	2.337345e-01	1.405511e-01	5.709644e-02	1.846864e-03	2.334353e-01	6.333297e-01	9.075812e-01	9.886653e-01	9.988424e-01	0
6.572855e-01	7.214507e-01	7.221192e-01	2.789036e-01	9.759255e-02	9.644904e-02	7.126815e-02	6.760659e-02	6.793655e-02	1.248751e-01	1.869143e-01	1.237481e-03	4.011275e-01	8.812401e-01	9.906545e-01	7.531543e-01	3.825395e-01	2.050131e-01	2.034195e-01	4.063391e-01	0
7.518767e-01	9.145042e-01	9.627647e-01	4.456348e-01	3.159435e-01	1.902666e-01	2.060978e-01	1.238937e-01	6.002269e-02	5.759919e-02	5.421169e-01	6.504380e-01	8.343802e-01	9.979639e-01	8.461544e-01	6.462952e-01	6.181672e-01	5.906364e-01	5.441576e-01	3.704682e-01	0
2.205461e-01	1.310260e-01	1.094728e-01	2.794941e-01	4.067153e-01	6.178788e-01	2.643179e-01	1.637514e-01	1.798071e-01	2.495791e-01	1.697571e-01	2.037407e-01	1.816338e-01	6.228787e-02	0	3.582587e-01	7.742704e-01	9.630521e-01	9.747466e-01	8.205217e-01	0
2.402825e-01	1.114867e-01	6.351217e-02	2.823037e-01	3.964291e-01	5.179832e-01	1.003890e-01	1.328721e-01	1.723611e-01	1.821827e-01	5.770322e-01	4.417977e-01	2.767936e-01	1.320442e-01	0	3.797888e-01	8.159257e-01	9.972520e-01	9.119360e-01	7.035931e-01	0
2.061087e-01	8.695083e-02	1.161657e-01	2.989321e-01	4.552875e-01	5.689917e-01	1.044092e-01	1.359373e-01	2.367666e-01	1.511479e-01	5.830716e-01	3.962724e-01	2.499769e-01	1.068600e-01	3.620844e-03	3.748405e-01	8.168250e-01	9.929544e-01	9.234261e-01	7.486147e-01	1
1.901027e-01	9.851822e-02	9.533133e-02	1.983924e-01	3.621976e-01	5.620256e-01	1.202738e-01	1.204668e-01	1.624995e-01	1.907058e-01	4.422071e-01	2.892950e-01	1.435595e-01	6.345677e-02	6.923735e-03	3.364257e-01	7.541244e-01	9.768906e-01	9.933745e-01	9.022595e-01	1
2.396454e-01	1.364816e-01	8.238401e-02	2.571267e-01	4.009603e-01	5.820016e-01	9.911358e-02	1.112760e-01	1.342169e-01	1.607731e-01	4.542928e-01	2.908318e-01	1.668721e-01	9.436177e-02	1.045010e-03	3.928034e-01	8.200087e-01	9.922937e-01	9.454531e-01	8.127170e-01	1
1.736915e-01	7.023373e-02	6.925790e-02	1.895166e-01	3.552590e-01	5.164866e-01	6.705549e-02	7.588492e-02	1.227397e-01	1.351581e-01	3.692202e-01	2.502583e-01	1.448319e-01	6.739041e-02	6.240642e-04	3.309031e-01	7.325740e-01	9.542580e-01	9.810012e-01	9.017898e-01	0
1.911893e-01	8.433269e-02	7.849366e-02	2.323768e-01	3.696616e-01	5.130077e-01	6.933496e-02	7.565493e-02	1.018155e-01	1.178756e-01	3.934571e-01	2.657331e-01	1.741539e-01	5.813014e-02	4.291986e-04	3.161854e-01	7.302789e-01	9.573254e-01	9.991854e-01	9.114230e-01	0
1.758188e-01	6.148636e-02	7.243106e-02	2.170151e-01	3.827459e-01	5.486631e-01	1.042865e-01	4.029869e-02	1.241453e-01	1.245199e-01	3.561557e-01	2.431624e-01	1.434662e-01	6.741991e-02	9.479074e-04	3.394196e-01	7.465638e-01	9.622826e-01	9.730841e-01	8.810884e-01	0
1.805708e-01	6.574948e-02	5.110822e-02	2.386923e-01	3.669832e-01	5.208871e-01	8.790308e-02	9.031348e-02	1.300973e-01	1.480703e-01	4.196672e-01	2.509924e-01	1.472947e-01	7.076847e-02	1.086584e-03	3.424942e-01	7.596563e-01	9.701683e-01	9.761544e-01	8.752118e-01	0
2.004850e-01	7.353656e-02	6.344209e-02	2.269811e-01	3.794692e-01	5.206099e-01	7.088108e-02	8.762879e-02	1.298480e-01	1.718738e-01	4.500911e-01	3.121637e-01	1.817852e-01	6.683159e-02	4.872048e-03	3.662209e-01	8.002727e-01	9.822337e-01	9.503452e-01	8.317698e-01	0
1.588431e-01	1.922958e-02	7.116932e-02	2.141709e-01	3.539492e-01	5.294914e-01	7.249448e-02	1.004514e-01	1.319180e-01	1.292082e-01	3.794466e-01	2.686257e-01	1.794629e-01	8.108881e-02	2.876482e-03	3.423804e-01	7.377906e-01	9.553628e-01	9.816039e-01	9.064464e-01	1
2.286265e-01	8.285022e-02	5.978739e-02	1.898744e-01	3.383318e-01	5.425056e-01	8.783505e-02	8.404152e-02	1.325943e-01	1.840288e-01	3.925889e-01	2.700686e-01	1.510606e-01	6.821881e-02	2.063905e-04	3.806941e-01	7.888857e-01	9.845333e-01	9.446958e-01	7.938896e-01	1
1.691730e-01	3.713755e-02	6.138567e-02	2.310162e-01	3.475909e-01	5.246117e-01	3.967197e-02	3.478524e-02	6.480790e-02	1.371869e-01	3.563149e-01	2.373960e-01	1.406880e-01	6.056344e-02	3.002602e-03	3.305276e-01	7.168642e-01	9.413694e-01	9.948051e-01	8.976953e-01	1
7.469327e-02	2.052928e-03	4.092376e-02	2.169121e-01	3.282976e-01	5.595951e-01	7.596049e-02	3.177353e-02	1.320974e-01	1.325011e-01	3.254623e-01	2.353270e-01	1.555942e-01	6.232650e-02	2.004174e-03	3.748745e-01	7.809440e-01	9.795437e-01	9.734048e-01	8.446071e-01	1
3.484014e-01	2.731347e-01	2.635263e-01	3.622131e-01	5.136723e-01	6.699512e-01	2.439991e-01	3.531428e-02	1.879421e-01	2.910615e-01	4.452181e-01	3.023499e-01	1.906722e-01	8.267294e-02	7.019646e-03	3.351471e-01	7.519052e-01	9.690172e-01	9.647911e-01	8.509617e-01	1
4.939079e-01	1.597393e-01	1.140432e-01	3.735412e-01	6.386462e-01	8.447252e-01	2.736172e-01	3.807708e-01	5.637538e-01	5.673385e-01	6.629304e-01	5.215692e-01	3.100887e-01	1.253954e-01	4.357412e-04	3.146313e-01	7.247820e-01	9.397165e-01	9.770539e-01	8.425974e-01	1
3.935917e-01	3.112377e-01	1.652060e-01	3.246168e-01	4.934432e-01	6.008424e-01	1.729860e-01	7.740271e-02	4.381343e-02	1.017305e-01	1	6.397657e-01	3.383297e-01	1.202690e-01	8.474087e-02	5.107309e-01	9.226374e-01	4.410181e-01	5.859277e-01	5.790316e-01	1
4.718270e-01	3.770485e-01	1.104855e-01	2.422677e-01	3.268991e-01	4.931719e-01	4.398639e-02	1.610323e-02	1.370193e-01	2.244526e-01	7.401803e-01	6.555330e-01	5.329269e-01	4.529018e-01	4.349482e-01	5.982937e-01	9.477891e-01	9.894032e-01	7.529071e-01	3.294418e-01	1
5.146533e-01	4.371215e-01	3.707478e-01	5.079318e-01	7.544982e-01	8.967374e-01	4.481884e-01	2.228941e-01	6.428279e-02	1.936619e-02	0	6.880566e-01	9.607417e-01	7.584696e-01	5.351222e-01	3.772006e-01	2.859116e-01	2.141023e-01	1.840303e-01	1.310173e-01	1
5.858010e-01	4.241712e-01	1.379485e-01	2.803502e-01	5.685131e-01	6.841033e-01	2.072236e-01	3.157980e-01	3.209559e-01	3.445931e-01	2.084483e-04	4.211943e-02	1.199208e-01	2.424185e-01	2.591598e-01	4.488964e-01	7.216211e-01	8.936347e-01	9.918088e-01	9.811882e-01	0
2.684410e-01	2.442783e-01	2.091141e-01	3.326945e-01	4.050500e-01	4.665849e-01	3.625387e-03	7.996792e-02	6.952181e-02	1.405144e-01	5.088493e-01	3.697234e-01	2.219195e-01	7.655248e-02	2.020225e-03	2.860544e-01	7.242538e-01	9.691576e-01	9.532787e-01	7.743162e-01	0
2.235224e-01	1.256842e-01	1.184601e-01	1.090685e-01	2.715629e-01	5.326820e-01	6.884629e-02	2.142149e-01	4.032619e-01	1.220012e-01	9.980412e-01	9.213674e-01	7.428374e-01	5.489414e-01	3.749757e-01	2.154406e-01	1.118039e-01	1.753831e-02	1.565479e-04	3.991178e-02	0
3.407678e-01	1.943442e-01	9.880803e-02	2.836559e-01	3.694547e-01	4.295864e-01	2.383869e-02	9.602188e-02	1.647186e-01	1.506813e-01	9.346166e-01	6.260625e-01	3.638066e-01	1.865788e-01	2.051175e-02	2.357422e-01	7.041870e-01	9.583805e-01	9.753598e-01	8.436187e-01	0
2.010840e-01	1.198931e-01	6.772401e-02	1.885662e-01	3.541212e-01	5.015611e-01	5.285875e-02	5.676660e-02	6.011897e-02	8.270919e-02	4.565771e-01	3.342894e-01	1.881842e-01	7.534764e-02	3.123754e-04	2.594518e-01	6.855414e-01	9.291885e-01	9.970775e-01	9.164501e-01	0
1.901188e-01	1.082568e-01	6.764228e-02	2.385655e-01	3.950975e-01	5.412686e-01	9.262827e-02	7.581292e-02	1.328777e-01	1.370345e-01	4.629266e-01	3.244393e-01	1.963432e-01	1.024303e-01	4.903884e-05	2.670817e-01	6.905362e-01	9.382939e-01	9.928606e-01	8.897387e-01	1
1.867147e-01	9.533368e-02	5.716464e-02	2.010148e-01	3.493778e-01	5.227524e-01	8.983490e-02	7.662038e-02	1.222962e-01	1.304859e-01	4.351129e-01	3.022116e-01	1.912221e-01	8.513200e-02	7.885788e-05	2.777549e-01	6.859042e-01	9.314741e-01	9.846802e-01	8.811086e-01	1
2.067645e-01	6.981386e-02	6.730082e-02	2.018132e-01	3.400384e-01	5.864147e-01	1.433455e-01	1.017429e-01	1.470220e-01	1.449491e-01	1	7.641809e-01	5.859767e-01	3.515747e-01	2.357951e-02	1.931738e-01	5.424557e-01	6.719216e-01	6.301745e-01	5.158050e-01	1
3.749912e-01	1.699226e-01	4.401268e-02	1.583580e-01	5.592014e-01	7.472889e-01	3.175589e-01	2.574864e-01	2.704243e-01	2.306210e-01	2.209315e-02	3.272572e-02	4.932725e-02	8.522861e-02	6.503988e-02	1.606746e-01	5.159092e-01	7.719457e-01	9.380968e-01	9.848572e-01	1
2.534095e-01	1.074033e-01	6.757074e-02	2.493032e-01	4.193905e-01	5.942764e-01	1.307226e-01	1.092241e-01	1.578115e-01	1.922126e-01	3.059887e-01	1.809925e-01	8.247907e-02	6.184252e-03	1.487830e-03	3.328320e-01	7.391282e-01	9.663591e-01	9.770761e-01	8.956064e-01	1
2.417497e-01	1.249727e-01	8.865133e-02	2.752338e-01	4.045641e-01	5.929458e-01	1.490836e-01	1.312524e-01	1.521787e-01	1.855069e-01	3.801735e-01	2.606345e-01	1.523515e-01	6.854756e-02	1.292911e-03	2.550482e-01	6.992620e-01	9.441859e-01	9.955365e-01	9.482067e-01	1
2.174596e-01	1.096323e-01	7.989305e-02	2.129526e-01	3.560754e-01	5.881368e-01	1.469205e-01	1.848332e-01	1.701713e-01	1.454722e-01	6.959042e-01	3.969923e-01	2.621869e-01	7.048132e-02	5.072425e-03	1.938530e-01	6.390818e-01	9.180464e-01	9.959907e-01	8.486054e-01	1
2.042480e-01	7.465353e-02	8.346848e-02	2.117765e-01	3.678324e-01	5.446455e-01	8.916486e-02	9.103205e-02	1.363001e-01	1.400502e-01	2.598692e-01	1.994527e-01	1.307119e-01	4.448763e-02	2.334973e-03	2.563832e-01	6.878770e-01	9.300624e-01	9.902095e-01	9.120552e-01	1
2.030279e-01	9.278702e-02	7.248739e-02	2.350896e-01	3.643979e-01	5.375773e-01	1.040541e-01	9.035430e-02	1.344213e-01	1.392489e-01	4.926292e-01	3.500987e-01	2.093274e-01	1.026702e-01	8.331445e-05	2.811788e-01	7.308599e-01	9.551440e-01	9.871582e-01	9.029721e-01	1
2.257357e-01	1.238414e-01	7.718768e-02	2.282189e-01	3.721653e-01	5.577523e-01	1.154932e-01	9.477980e-02	1.539940e-01	1.634977e-01	4.481276e-01	3.080624e-01	1.852793e-01	8.798129e-02	4.069870e-04	2.883689e-01	7.297199e-01	9.485840e-01	9.829259e-01	9.122536e-01	1
2.229253e-01	9.161332e-02	8.101978e-02	2.183115e-01	3.739559e-01	5.583653e-01	1.080497e-01	1.011818e-01	1.481073e-01	1.590962e-01	4.530884e-01	2.901238e-01	1.900103e-01	9.157943e-02	2.313599e-03	2.907084e-01	7.255160e-01	9.528391e-01	9.908297e-01	9.050689e-01	1
2.335704e-01	9.848034e-02	7.728377e-02	2.347694e-01	3.865915e-01	5.730998e-01	1.128861e-01	1.053446e-01	1.348172e-01	1.447395e-01	4.650341e-01	3.238487e-01	2.130644e-01	8.949760e-02	2.445554e-03	2.869313e-01	7.323729e-01	9.452984e-01	9.729830e-01	9.042274e-01	1
2.233471e-01	9.865583e-02	7.320912e-02	2.253959e-01	3.690375e-01	5.509084e-01	1.184053e-01	9.388412e-02	1.368539e-01	1.507852e-01	3.475964e-01	2.510977e-01	1.634453e-01	6.344641e-02	4.859114e-03	2.766580e-01	6.989327e-01	9.346883e-01	9.877356e-01	9.249495e-01	1
2.123608e-01	8.565766e-02	7.403362e-02	2.141067e-01	3.472960e-01	5.431509e-01	8.982455e-02	7.034540e-02	1.263489e-01	1.263884e-01	5.201702e-01	3.871339e-01	2.498179e-01	1.197843e-01	4.876315e-03	2.741862e-01	6.883205e-01	9.213145e-01	9.998985e-01	8.883172e-01	1
2.161192e-01	9.639439e-02	1.261630e-01	3.376226e-01	5.314866e-01	7.075284e-01	1.689150e-01	1.098583e-01	7.543157e-02	3.261050e-02	5.170387e-01	3.577336e-01	2.280105e-01	1.346922e-01	1.737470e-02	2.662798e-01	7.343467e-01	9.720590e-01	9.864493e-01	8.348846e-01	1
4.987731e-01	5.517643e-01	5.176909e-01	7.220196e-03	8.608300e-01	8.301410e-01	5.568514e-01	5.059809e-01	4.893959e-01	4.840158e-01	2.764447e-01	1.725277e-01	1.092323e-01	1.170975e-01	2.597302e-02	1.709529e-01	4.890797e-01	7.787884e-01	9.524045e-01	9.933799e-01	1
3.991581e-01	1.789542e-01	8.435371e-02	2.542845e-01	4.137848e-01	6.144770e-01	1.529842e-01	7.446791e-02	7.022228e-02	6.823473e-02	2.883022e-01	2.315346e-01	1.605342e-01	8.788772e-02	0	2.931805e-01	6.984838e-01	9.218190e-01	9.905643e-01	9.313986e-01	1
1.790728e-01	5.626266e-02	7.783132e-02	2.153134e-01	3.485219e-01	5.759298e-01	1.649402e-01	1.832933e-01	2.254789e-01	2.130692e-01	3.219910e-01	2.202105e-01	1.315505e-01	6.537274e-02	1.364419e-05	2.671618e-01	6.867957e-01	9.249569e-01	9.821687e-01	9.317552e-01	1
9.496449e-02	2.754056e-02	6.486554e-02	2.280907e-01	4.535204e-01	5.569827e-01	4.336039e-02	1.187518e-04	7.522278e-02	1.434066e-01	2.373256e-01	1.837449e-01	1.298317e-01	7.571572e-02	5.738567e-04	2.199152e-01	5.606340e-01	7.888928e-01	9.766694e-01	9.845352e-01	1
2.016307e-01	1.100711e-01	8.020485e-02	1.937964e-01	3.392866e-01	5.204422e-01	4.874349e-02	3.793800e-02	7.379539e-02	8.458287e-02	8.899471e-02	4.417127e-02	1.963314e-02	1.665575e-02	8.176318e-03	2.738115e-01	6.769845e-01	9.145443e-01	9.974215e-01	9.414588e-01	1
1.220894e-01	8.618184e-02	1.606280e-01	3.073373e-01	3.808021e-01	5.169663e-01	4.244408e-02	2.535480e-03	2.352734e-02	2.118416e-02	4.858946e-01	3.565694e-01	2.309623e-01	1.170759e-01	9.661056e-03	2.830182e-01	7.447563e-01	9.555895e-01	9.783011e-01	8.446612e-01	1
1.799782e-01	5.151553e-02	6.706126e-02	1.997313e-01	2.904366e-01	5.212890e-01	9.289623e-02	1.714804e-01	1.298184e-01	1.563199e-01	4.791634e-01	3.335363e-01	2.072857e-01	9.669782e-02	1.375695e-03	2.757879e-01	7.409753e-01	9.477451e-01	9.842031e-01	8.968055e-01	1
1.803041e-01	8.114972e-02	6.984830e-02	1.601044e-01	3.296914e-01	5.180026e-01	1.078622e-01	9.336195e-02	1.284841e-01	1.233950e-01	4.274054e-01	2.911258e-01	1.831527e-01	7.819410e-02	9.072924e-03	2.348374e-01	7.082207e-01	9.345917e-01	9.997516e-01	9.459250e-01	1
1.940945e-01	6.483117e-02	9.692698e-02	1.946212e-01	3.459610e-01	5.096446e-01	3.549282e-02	4.623964e-02	1.039482e-01	2.617826e-02	2.421595e-01	1.607435e-01	9.023902e-02	4.606801e-02	9.717274e-04	2.252394e-01	6.553333e-01	9.154326e-01	9.998717e-01	7.711489e-01	1
4.041868e-02	4.973209e-01	4.991266e-01	4.148715e-01	3.847738e-01	4.216900e-01	2.478664e-01	2.368188e-01	2.402445e-01	2.406368e-01	4.677025e-02	6.468899e-04	5.018304e-02	9.838742e-02	1.469949e-01	3.105367e-01	5.861340e-01	7.824420e-01	9.125010e-01	9.604511e-01	0
1.193418e-01	4.209228e-02	8.770232e-02	2.067284e-01	3.366293e-01	5.254644e-01	3.527631e-02	3.294476e-02	6.413365e-02	3.960614e-02	2.684179e-01	1.996561e-01	1.291955e-01	6.424335e-02	5.395410e-04	2.519086e-01	6.609150e-01	9.086213e-01	9.961400e-01	9.451309e-01	0
1.797222e-01	7.468350e-02	6.948758e-02	2.312180e-01	4.108521e-01	6.156934e-01	1.351022e-01	1.423104e-01	2.057926e-01	2.014262e-01	5.036666e-01	3.664995e-01	2.250505e-01	1.016218e-01	5.199798e-03	2.599273e-01	7.026006e-01	9.407221e-01	9.895270e-01	9.073722e-01	0
2.408919e-01	9.927749e-02	6.699067e-02	2.285521e-01	3.895702e-01	5.983210e-01	1.643509e-01	1.717648e-01	2.014512e-01	2.073864e-01	5.745720e-01	4.231125e-01	2.703420e-01	1.376135e-01	1.030978e-02	2.443502e-01	7.190152e-01	9.515933e-01	9.658832e-01	8.584145e-01	0
1.901807e-01	6.225797e-02	9.281704e-02	3.131780e-01	3.934188e-01	5.812256e-01	1.164429e-01	9.161907e-02	1.276501e-01	1.687298e-01	4.525465e-01	3.183707e-01	1.933246e-01	9.024543e-02	1.952907e-03	2.662828e-01	6.953880e-01	9.353085e-01	9.931506e-01	8.987739e-01	0
1.858731e-01	5.298038e-02	6.288870e-02	2.047720e-01	3.349623e-01	5.504001e-01	6.769133e-02	7.466007e-02	1.182039e-01	1.384025e-01	4.496789e-01	3.054765e-01	1.901163e-01	9.162738e-02	7.970511e-05	2.816466e-01	7.155290e-01	9.450012e-01	9.892560e-01	8.866258e-01	1
1.751247e-01	5.925473e-02	6.124931e-02	1.806229e-01	3.296889e-01	5.292507e-01	5.842255e-02	4.171000e-02	6.905135e-02	9.497439e-02	4.237224e-01	2.932222e-01	1.772477e-01	7.686156e-02	3.135307e-04	2.917452e-01	7.263416e-01	9.486496e-01	9.926969e-01	8.894155e-01	1
1.957017e-01	6.163184e-02	6.843606e-02	2.154445e-01	4.076930e-01	5.664822e-01	1.988544e-02	9.977826e-02	1.952299e-01	3.347269e-01	5.164838e-01	3.564658e-01	2.112528e-01	8.850855e-02	7.886150e-04	2.897216e-01	7.726239e-01	9.842107e-01	9.499110e-01	7.747648e-01	1
3.201260e-01	1.623511e-01	1.721688e-01	2.681395e-01	3.299907e-01	4.697652e-01	8.407953e-02	3.262447e-02	5.757689e-02	1.397782e-01	3.953271e-01	2.541755e-01	1.513334e-01	6.562943e-02	4.942315e-03	2.107930e-01	6.621217e-01	9.226689e-01	9.998902e-01	9.545355e-01	1
3.492354e-01	1.440044e-01	6.515228e-02	1.270469e-01	3.562912e-01	5.824831e-01	1.724420e-01	2.312112e-01	2.596327e-01	3.242924e-01	2.120085e-01	1.395257e-01	1.007946e-01	5.457742e-02	5.498961e-03	2.282392e-01	6.989170e-01	9.496574e-01	9.864042e-01	9.243273e-01	1
2.489984e-01	1.041791e-01	7.762600e-02	2.674438e-01	3.921336e-01	5.979282e-01	1.494607e-01	1.438840e-01	1.811174e-01	1.800607e-01	3.458149e-01	2.413401e-01	1.327711e-01	6.624303e-02	4.717588e-03	2.771385e-01	7.447472e-01	9.603428e-01	9.698369e-01	8.105236e-01	1
1.709870e-01	8.034258e-02	6.845876e-02	2.142435e-01	3.243880e-01	4.888537e-01	4.691517e-02	7.137698e-02	7.714201e-02	5.213887e-02	5.445648e-01	3.381861e-01	1.863528e-01	9.529159e-02	1.775973e-05	2.099324e-01	6.293088e-01	8.850347e-01	9.980633e-01	9.382606e-01	1
1.698730e-01	4.866634e-02	7.142543e-02	1.910272e-01	2.655802e-01	5.790704e-01	8.002344e-02	3.922718e-02	9.264873e-02	7.315436e-02	3.541272e-01	2.403156e-01	1.396307e-01	6.951314e-02	8.372850e-04	2.109792e-01	6.725580e-01	9.089827e-01	9.983167e-01	9.229827e-01	1
1.736661e-01	6.549877e-02	6.411812e-02	2.023736e-01	3.201804e-01	5.746659e-01	6.912705e-02	6.397565e-02	9.778719e-02	1.210908e-01	3.569035e-01	2.394522e-01	1.399519e-01	5.565746e-02	5.084981e-03	2.089529e-01	6.589519e-01	9.219711e-01	1	9.222372e-01	1
1.651598e-01	6.410293e-02	6.387055e-02	1.332394e-01	3.240514e-01	5.907707e-01	9.485111e-02	1.080101e-01	1.484066e-01	1.159062e-01	3.557832e-01	2.444231e-01	1.447176e-01	7.952226e-02	2.395019e-03	2.223414e-01	6.646946e-01	9.186474e-01	9.956468e-01	9.091604e-01	1
1.499451e-01	6.393991e-02	3.415887e-02	2.000976e-01	3.340603e-01	4.885206e-01	7.343919e-02	8.765361e-02	1.361132e-01	1.198553e-01	3.527507e-01	2.367082e-01	1.516060e-01	7.528746e-02	7.542984e-03	2.089051e-01	6.718602e-01	9.274537e-01	9.936492e-01	9.245107e-01	1
1.868723e-01	7.396557e-02	6.755104e-02	2.381654e-01	3.657243e-01	5.834587e-01	1.567818e-01	1.390252e-01	1.550918e-01	1.959307e-01	4.543002e-01	2.993584e-01	1.820976e-01	9.011390e-02	1.546844e-03	2.206600e-01	6.885141e-01	9.389768e-01	9.993998e-01	9.284530e-01	1
3.088449e-01	3.273133e-01	2.477761e-01	3.519604e-01	3.918587e-01	4.428334e-01	2.138698e-02	2.566427e-02	5.602792e-02	8.281239e-02	2.122478e-01	1.753148e-01	1.424370e-01	9.821620e-02	3.409290e-03	2.361560e-01	6.918451e-01	9.395194e-01	9.774402e-01	8.341746e-01	1
1.595539e-02	2.434406e-02	7.956387e-02	2.947226e-01	4.951055e-01	8.003325e-01	2.721321e-01	1.194197e-01	1.114898e-01	3.153660e-02	4.972562e-01	3.404382e-01	2.070343e-01	9.295250e-02	0	3.023168e-01	7.441804e-01	9.694149e-01	9.709668e-01	8.068949e-01	1
2.237622e-01	9.993621e-02	7.445517e-02	2.539668e-01	3.920385e-01	6.419576e-01	1.953695e-01	1.729207e-01	2.182567e-01	2.431948e-01	6.770562e-01	4.797258e-01	3.107596e-01	1.510699e-01	2.385118e-03	2.766041e-01	7.539742e-01	9.628548e-01	9.504583e-01	7.666976e-01	1
2.009767e-01	1.012164e-01	6.522496e-02	2.329956e-01	3.699708e-01	5.819230e-01	1.239628e-01	1.100003e-01	1.581901e-01	1.624702e-01	6.816118e-01	4.748807e-01	2.864855e-01	1.400313e-01	5.159039e-03	2.539097e-01	7.293370e-01	9.647049e-01	9.693084e-01	8.434003e-01	0
3.077382e-01	2.256646e-01	2.484157e-01	3.756690e-01	4.133525e-01	5.282279e-01	1.821190e-01	6.505000e-02	8.341560e-02	3.205330e-01	4.253860e-01	2.732132e-01	1.557379e-01	5.859187e-02	1.628683e-06	2.691545e-01	6.969542e-01	9.456557e-01	9.871562e-01	8.733487e-01	0
2.986620e-01	1.488357e-01	1.008855e-01	2.112787e-01	3.161392e-01	5.195811e-01	4.210036e-02	2.168677e-02	7.413184e-02	8.439983e-02	2.797988e-01	2.018399e-01	1.105604e-01	4.050577e-02	3.291350e-04	2.599399e-01	6.910777e-01	9.325156e-01	9.893041e-01	9.150730e-01	0
1.956845e-01	9.868496e-02	7.764268e-02	2.299447e-01	3.646191e-01	5.806897e-01	1.693885e-01	1.748994e-01	2.246635e-01	2.550230e-01	5.397863e-01	3.605617e-01	2.234872e-01	9.356729e-02	3.181393e-04	2.753278e-01	7.344258e-01	9.618588e-01	9.860689e-01	8.868900e-01	0
2.064774e-01	1.066954e-01	8.127816e-02	2.415695e-01	3.905616e-01	5.460851e-01	9.415341e-02	8.050289e-02	1.037893e-01	1.135993e-01	4.681003e-01	3.454357e-01	2.080384e-01	1.119012e-01	2.307985e-03	2.710921e-01	7.475732e-01	9.569477e-01	9.719580e-01	8.750678e-01	0
1.931891e-01	8.981554e-02	6.225871e-02	2.185251e-01	3.628033e-01	5.419718e-01	8.767295e-02	8.385323e-02	1.251162e-01	1.256592e-01	4.380612e-01	3.071448e-01	1.770045e-01	7.867351e-02	6.766922e-03	2.765619e-01	7.098524e-01	9.554865e-01	9.810937e-01	8.884607e-01	1
1.847365e-01	9.107012e-02	7.313537e-02	2.130951e-01	3.562901e-01	5.120841e-01	7.160588e-02	7.097222e-02	1.083848e-01	1.666099e-01	4.430755e-01	3.083253e-01	2.038995e-01	9.121269e-02	5.909774e-03	2.483333e-01	6.865565e-01	9.321575e-01	9.998813e-01	9.584699e-01	1
1.934562e-01	1.087548e-01	1.475343e-01	1.982767e-01	3.010395e-01	4.677633e-01	5.161499e-02	2.560927e-02	8.360725e-02	9.834394e-02	5.077053e-01	3.511279e-01	2.091583e-01	1.035200e-01	3.666954e-03	2.350115e-01	6.800541e-01	9.432467e-01	9.997066e-01	9.578018e-01	1
2.026038e-01	1.117782e-01	8.039281e-02	2.389297e-01	3.623009e-01	5.264965e-01	1.293687e-01	1.204284e-01	1.528374e-01	1.538324e-01	4.632204e-01	3.279813e-01	2.077092e-01	1.103247e-01	1.295963e-02	2.328119e-01	6.984334e-01	9.418152e-01	9.914010e-01	9.093299e-01	1
1.864737e-01	7.005198e-02	6.677525e-02	2.530758e-01	4.036255e-01	6.154065e-01	1.627982e-01	1.488380e-01	1.844402e-01	2.022178e-01	2.039860e-01	1.435597e-01	8.959087e-02	4.278317e-02	1.893895e-03	1.684932e-01	4.713431e-01	7.013458e-01	8.433520e-01	9.588931e-01	1
2.365229e-01	1.185896e-01	9.483355e-02	2.520267e-01	3.965019e-01	5.879960e-01	1.417171e-01	1.352238e-01	1.686305e-01	1.893929e-01	1	4.194235e-01	1.644791e-01	1.006884e-01	1.132576e-03	2.165912e-01	6.173155e-01	8.627212e-01	9.072157e-01	7.922524e-01	1
1.964740e-01	9.205542e-02	7.700589e-02	2.255710e-01	3.636759e-01	5.618333e-01	1.239204e-01	1.014595e-01	1.520882e-01	1.502784e-01	4.661481e-01	3.202595e-01	1.970732e-01	1.009434e-01	5.742282e-03	2.238716e-01	6.615318e-01	9.215951e-01	9.997880e-01	9.523759e-01	1
2.083108e-01	1.070208e-01	7.037685e-02	2.083426e-01	3.482276e-01	5.330406e-01	1.306347e-01	1.207109e-01	1.737833e-01	1.902200e-01	2.155053e-01	1.473548e-01	8.682876e-02	3.956104e-02	3.971787e-03	2.128730e-01	6.052604e-01	8.785377e-01	9.910961e-01	9.923625e-01	1
2.065614e-01	1.210002e-01	7.134151e-02	2.515936e-01	3.735535e-01	5.644806e-01	1.190167e-01	1.028484e-01	1.389602e-01	1.373360e-01	5.936718e-01	4.353506e-01	2.889000e-01	1.389017e-01	9.721808e-03	2.546960e-01	7.164443e-01	9.691646e-01	9.634303e-01	8.211449e-01	1
1.809227e-01	7.602306e-02	6.040313e-02	2.102624e-01	3.522477e-01	5.366369e-01	7.794114e-02	7.478909e-02	1.219719e-01	1.323069e-01	5.592194e-01	3.917121e-01	2.493127e-01	1.122952e-01	6.567642e-03	2.451393e-01	6.783300e-01	9.346614e-01	9.968016e-01	8.890324e-01	1
1.938611e-01	7.962576e-02	6.327023e-02	2.110971e-01	3.468701e-01	5.444737e-01	9.901538e-02	6.895274e-02	1.321203e-01	1.547611e-01	5.455478e-01	3.896092e-01	2.386809e-01	1.058451e-01	3.440593e-03	2.514851e-01	6.761303e-01	9.355313e-01	9.923845e-01	9.046581e-01	1
1.974917e-01	8.856425e-02	6.870655e-02	2.095001e-01	3.376254e-01	5.453031e-01	9.135218e-02	7.216309e-02	1.191552e-01	1.142395e-01	4.309224e-01	2.897816e-01	1.731090e-01	7.264821e-02	1.772329e-04	2.327515e-01	6.644059e-01	9.149619e-01	9.999669e-01	9.224963e-01	1
2.162362e-01	1.153531e-01	8.708945e-02	2.244685e-01	3.436091e-01	5.550639e-01	1.708381e-01	1.111787e-01	1.430784e-01	1.404360e-01	3.825686e-01	2.588396e-01	1.613788e-01	7.361643e-02	6.166036e-03	2.246900e-01	6.626016e-01	9.161108e-01	9.876615e-01	9.324554e-01	1
2.371926e-01	1.197934e-01	1.058036e-01	2.662630e-01	3.825267e-01	6.122505e-01	1.592181e-01	7.669326e-02	1.922669e-01	7.372645e-02	0	3.964780e-02	7.217873e-02	9.987620e-02	1.186722e-01	3.636093e-01	7.208515e-01	9.322623e-01	9.999024e-01	9.441194e-01	1
3.742575e-01	1.349792e-01	2.930916e-02	1.069823e-01	2.462825e-01	4.070839e-01	6.252106e-03	1.973211e-01	3.194785e-01	2.936823e-01	8.953522e-01	6.586083e-01	4.157686e-01	1.990007e-01	1.594785e-02	2.301178e-01	6.912852e-01	9.486897e-01	9.838189e-01	8.947169e-01	1
5.331206e-01	4.273107e-01	2.497792e-01	7.037893e-02	1.892705e-01	4.995039e-01	3.211990e-01	9.464424e-03	1.483183e-01	2.437169e-01	5.224652e-01	3.553204e-01	2.075802e-01	1.019182e-01	8.141518e-03	2.313966e-01	6.584159e-01	9.261362e-01	9.908739e-01	9.079979e-01	1
2.072423e-01	1.570490e-01	7.208348e-02	2.056291e-01	2.894310e-01	4.987043e-01	1.042162e-01	3.419042e-02	9.698090e-02	1.308346e-01	4.929889e-01	3.511432e-01	2.311523e-01	1.111524e-01	5.555547e-03	2.627811e-01	7.015367e-01	9.433853e-01	9.886000e-01	9.056401e-01	0
2.620229e-01	1.652307e-01	1.643697e-01	2.553319e-01	3.885888e-01	5.707259e-01	1.511660e-01	1.782317e-01	1.540436e-01	8.471913e-02	3.844307e-01	2.650133e-01	1.543818e-01	6.884238e-02	0	2.330587e-01	6.054009e-01	8.679146e-01	9.911832e-01	9.893567e-01	1
1.487855e-01	1.196581e-01	9.552813e-02	2.369315e-01	3.554513e-01	5.175671e-01	4.904033e-02	5.131769e-02	7.997801e-02	7.411573e-02	4.845081e-01	3.609751e-01	2.333024e-01	1.148817e-01	8.164984e-04	2.806274e-01	7.256878e-01	9.628469e-01	9.706840e-01	8.350669e-01	1
2.085462e-01	1.084604e-01	7.133455e-02	2.340582e-01	3.651508e-01	5.628307e-01	1.246812e-01	1.183916e-01	1.452477e-01	1.600111e-01	5.225519e-01	3.507052e-01	2.188935e-01	1.053594e-01	7.882065e-04	2.913749e-01	7.480516e-01	9.720380e-01	9.800719e-01	8.810593e-01	1
2.283886e-01	1.100838e-01	7.630444e-02	2.427350e-01	3.947936e-01	5.545687e-01	1.576481e-01	1.854797e-01	2.669282e-01	3.121914e-01	5.393843e-01	3.701689e-01	2.130245e-01	1.043373e-01	2.695189e-03	2.845411e-01	7.489530e-01	9.614753e-01	9.656109e-01	8.403003e-01	1
1.708534e-01	8.153127e-02	5.273094e-02	1.719914e-01	2.921495e-01	4.610801e-01	3.750408e-02	4.421639e-02	7.622054e-02	1.073086e-01	3.651304e-01	2.525188e-01	1.489958e-01	6.645105e-02	2.977179e-03	2.741967e-01	6.972820e-01	9.365475e-01	9.937113e-01	9.011082e-01	1
1.811467e-01	7.338090e-02	5.998721e-02	1.757728e-01	3.326900e-01	5.005490e-01	6.263053e-02	5.168291e-02	1.107499e-01	1.541407e-01	4.089527e-01	2.715253e-01	1.662850e-01	8.231214e-02	2.229888e-03	2.715894e-01	7.186827e-01	9.568692e-01	9.702339e-01	8.718823e-01	1
1.881313e-01	8.959241e-02	6.355166e-02	1.093381e-01	3.219062e-01	5.574587e-01	1.501194e-01	1.463051e-01	1.550001e-01	1.134632e-01	3.624808e-01	2.311435e-01	1.369664e-01	6.049052e-02	2.822100e-04	2.669902e-01	7.227354e-01	9.697429e-01	9.795182e-01	9.031078e-01	1
1.509651e-01	5.830425e-02	7.689803e-02	2.610110e-01	4.334894e-01	6.314160e-01	1.288836e-01	7.392467e-02	7.827740e-02	1.004653e-01	3.816148e-01	2.637549e-01	1.691788e-01	6.978215e-02	1.184075e-02	2.412805e-01	6.969237e-01	9.515298e-01	9.962701e-01	9.510782e-01	1
2.288492e-01	9.842549e-02	6.413856e-02	1.731374e-01	2.964366e-01	5.231719e-01	9.980878e-02	1.304028e-01	1.430390e-01	1.504811e-01	2.629964e-01	1.570513e-01	7.111586e-02	2.429845e-02	6.236230e-04	2.752587e-01	6.952916e-01	9.359245e-01	9.952452e-01	9.152375e-01	1
1.564363e-01	5.447589e-02	5.976857e-02	1.802954e-01	3.282232e-01	5.277012e-01	6.476664e-02	7.093366e-02	1.113218e-01	1.239019e-01	4.472212e-01	3.109111e-01	1.930424e-01	9.795591e-02	1.580830e-03	2.749304e-01	7.198791e-01	9.484799e-01	9.896781e-01	9.111559e-01	1
1.689693e-01	7.450139e-02	7.006108e-02	1.765108e-01	3.158712e-01	4.925436e-01	6.435477e-02	6.826443e-02	1.005069e-01	1.146353e-01	4.332509e-01	2.984499e-01	1.807818e-01	8.158720e-02	1.379236e-04	2.804862e-01	7.275421e-01	9.545128e-01	9.929467e-01	9.083995e-01	1
2.255871e-01	8.984690e-02	6.766789e-02	1.891441e-01	3.358143e-01	5.112078e-01	8.580187e-02	8.361084e-02	1.266365e-01	1.995664e-01	3.855949e-01	2.598513e-01	1.627834e-01	6.554703e-02	5.582881e-04	2.855535e-01	7.413595e-01	9.679220e-01	9.787108e-01	9.073324e-01	1
2.212907e-01	1.025915e-01	6.318720e-02	2.300401e-01	3.677520e-01	5.279108e-01	1.150171e-01	1.265286e-01	1.510356e-01	1.768731e-01	2.845794e-01	1.818785e-01	1.068318e-01	5.034004e-02	4.447000e-05	2.723314e-01	7.149103e-01	9.412858e-01	9.895728e-01	8.970276e-01	1
1.728181e-01	5.380492e-02	6.018373e-02	1.936430e-01	3.311819e-01	5.505856e-01	3.752338e-02	6.744111e-02	7.540465e-02	1.123215e-01	4.052462e-01	2.684588e-01	1.598745e-01	8.007165e-02	1.007745e-03	2.791819e-01	7.014884e-01	9.440841e-01	9.909263e-01	8.932336e-01	1
1.733924e-01	5.297899e-02	6.234531e-02	1.744539e-01	3.085146e-01	4.968346e-01	5.090067e-02	4.837708e-02	8.382573e-02	9.982378e-02	6.024520e-01	4.237293e-01	2.569456e-01	1.204426e-01	8.323089e-04	2.805503e-01	7.111365e-01	9.482899e-01	9.856795e-01	8.831582e-01	1
2.020377e-01	9.007618e-02	6.685693e-02	2.000556e-01	3.355669e-01	5.223071e-01	9.207996e-02	1.009755e-01	1.240249e-01	1.371836e-01	3.699982e-01	2.555729e-01	1.596670e-01	7.242947e-02	7.216864e-04	3.023047e-01	7.348370e-01	9.569082e-01	9.763025e-01	8.806621e-01	1
1.991979e-01	8.061639e-02	6.234649e-02	2.231760e-01	3.480119e-01	5.123249e-01	9.313368e-02	7.672772e-02	1.182435e-01	1.448307e-01	5.081764e-01	3.579699e-01	2.363025e-01	1.312101e-01	4.351882e-03	2.848128e-01	7.328027e-01	9.558060e-01	9.771263e-01	8.835196e-01	1
1.777685e-01	6.568439e-02	5.767792e-02	1.801094e-01	3.242265e-01	4.996927e-01	6.939754e-02	6.262151e-02	9.629657e-02	1.196075e-01	3.816824e-01	2.576536e-01	1.534546e-01	6.991644e-02	1.268740e-03	2.804401e-01	7.029366e-01	9.351294e-01	9.996498e-01	9.208740e-01	1
1.851442e-01	6.907911e-02	5.752379e-02	1.766774e-01	3.126119e-01	5.073666e-01	5.974272e-02	5.682815e-02	8.357077e-02	1.150410e-01	3.570283e-01	2.341580e-01	1.452994e-01	5.681304e-02	3.052430e-04	2.732164e-01	6.999005e-01	9.368828e-01	9.883654e-01	9.075517e-01	1
3.205233e-01	1.073835e-01	6.458482e-02	2.128811e-01	3.853421e-01	6.072397e-01	1.193138e-01	1.105704e-01	1.242651e-01	1.359521e-01	3.051568e-01	1.892974e-01	1.021008e-01	3.761257e-02	7.785746e-05	2.853575e-01	7.085701e-01	9.390388e-01	9.893706e-01	9.365301e-01	1
2.561227e-01	1.595711e-01	1.417734e-01	2.454243e-01	2.931447e-01	2.287878e-01	6.077785e-03	1.788499e-01	3.738158e-01	5.155825e-01	2.469312e-01	2.116409e-01	1.784750e-01	9.466594e-02	6.293339e-03	2.091543e-01	6.061477e-01	8.808304e-01	9.606872e-01	9.859079e-01	1
6.070641e-01	4.556443e-01	3.513269e-01	3.974135e-01	3.821750e-01	5.148171e-01	1.601409e-02	2.817582e-02	2.369695e-01	2.639199e-01	5.849346e-02	3.553290e-02	1.226541e-02	1.369985e-01	1.850275e-01	3.380560e-01	7.173088e-01	9.359004e-01	9.912499e-01	9.002810e-01	1
4.531401e-01	2.517044e-01	6.917247e-02	2.744883e-01	4.671595e-01	7.034642e-01	2.560891e-01	2.207626e-01	2.264320e-01	2.348387e-01	7.221443e-01	4.806149e-01	3.033040e-01	1.513217e-01	4.463716e-03	3.277622e-01	8.215980e-01	9.895368e-01	9.249825e-01	7.373361e-01	0
2.373566e-01	1.428710e-01	6.955215e-02	2.862690e-01	4.284537e-01	6.417214e-01	1.542288e-01	1.310185e-01	1.860068e-01	1.809704e-01	4.548243e-01	3.216439e-01	1.890962e-01	6.901989e-02	1.171975e-03	3.287124e-01	7.717467e-01	9.750782e-01	9.768324e-01	8.436729e-01	1
2.445208e-01	1.408954e-01	6.758067e-02	2.423519e-01	3.940122e-01	5.966798e-01	1.050746e-01	1.472973e-01	1.763207e-01	1.839021e-01	4.824606e-01	3.284575e-01	1.987051e-01	8.163784e-02	5.295724e-04	3.570054e-01	7.901732e-01	9.884980e-01	9.863639e-01	8.557485e-01	1
2.576100e-01	1.683876e-01	7.577941e-02	2.638592e-01	4.033018e-01	6.083536e-01	1.611652e-01	1.436173e-01	1.747386e-01	2.293103e-01	3.756567e-01	2.357744e-01	1.387243e-01	6.822178e-02	8.092249e-04	3.488602e-01	8.035662e-01	9.757182e-01	9.679253e-01	8.302609e-01	1
2.488629e-01	1.545210e-01	8.357163e-02	3.102769e-01	4.997508e-01	6.353188e-01	1.516582e-01	9.654691e-02	1.351394e-01	1.410704e-01	4.475053e-01	2.958299e-01	1.803435e-01	8.758652e-02	7.909408e-05	3.355284e-01	8.046783e-01	9.947527e-01	9.831710e-01	8.770923e-01	1
2.510426e-01	1.510113e-01	8.137457e-02	2.876522e-01	4.386936e-01	6.738670e-01	2.467790e-01	2.803889e-01	3.165046e-01	3.110074e-01	4.805093e-01	3.147772e-01	1.883482e-01	8.747591e-02	4.543543e-03	3.168345e-01	7.896424e-01	9.724142e-01	9.814166e-01	9.901368e-01	1
2.687799e-01	1.739312e-01	7.715153e-02	3.216650e-01	4.764431e-01	6.643484e-01	2.012865e-01	1.359046e-01	2.122366e-01	2.162961e-01	2.983813e-01	1.921895e-01	1.202770e-01	5.836834e-02	2.536653e-03	3.348820e-01	7.751547e-01	9.492821e-01	9.854868e-01	9.375999e-01	1
2.436783e-01	1.661475e-01	8.181789e-02	2.303228e-01	3.809311e-01	5.520152e-01	1.012879e-01	1.035214e-01	1.653663e-01	1.557460e-01	4.229961e-01	2.742228e-01	1.627045e-01	8.009825e-02	1.615070e-05	3.209006e-01	7.749395e-01	9.598514e-01	9.951130e-01	9.782079e-01	0
2.199540e-01	1.265865e-01	8.910500e-02	2.636619e-01	4.133748e-01	6.112373e-01	1.371094e-01	1.310571e-01	1.580809e-01	1.673072e-01	5.139179e-01	3.720820e-01	2.380132e-01	1.101595e-01	2.638977e-03	3.169850e-01	7.900716e-01	9.796186e-01	9.771679e-01	9.282354e-01	1
2.865631e-01	2.012591e-01	9.799950e-02	2.921245e-01	4.813098e-01	7.117095e-01	2.285648e-01	1.860000e-01	2.372643e-01	2.645106e-01	0	2.802328e-01	7.058892e-01	9.280644e-01	9.067155e-01	9.910323e-01	9.891470e-01	8.424469e-01	6.324975e-01	4.359044e-01	0
2.478300e-01	1.481025e-01	8.234801e-02	2.465027e-01	4.134205e-01	6.138095e-01	1.436556e-01	1.018634e-01	1.457106e-01	1.640031e-01	7.927615e-01	5.612117e-01	3.651780e-01	1.552574e-01	4.391950e-03	3.142353e-01	7.989253e-01	9.829897e-01	9.639749e-01	8.738187e-01	1
2.541594e-01	1.481801e-01	8.303899e-02	2.670460e-01	4.693086e-01	6.814259e-01	2.510046e-01	2.297094e-01	1.957296e-01	1.544941e-01	4.850638e-01	3.365318e-01	2.055109e-01	1.223035e-01	1.242191e-02	2.906972e-01	7.975936e-01	9.841903e-01	9.472850e-01	8.898191e-01	1
2.738484e-01	1.992582e-01	1.019695e-01	2.767705e-01	3.943086e-01	5.646991e-01	1.480534e-01	1.278169e-01	1.675802e-01	1.951538e-01	4.728318e-01	3.151578e-01	1.805808e-01	1.008919e-01	3.808269e-03	3.431008e-01	8.532752e-01	1	9.295975e-01	8.614459e-01	1
2.531464e-01	1.389219e-01	9.468526e-02	2.629297e-01	3.797824e-01	5.953202e-01	1.300079e-01	8.975353e-02	1.176812e-01	1.017709e-01	3.952493e-01	2.611030e-01	1.733056e-01	7.979774e-02	2.229286e-04	3.488833e-01	8.323727e-01	9.918117e-01	9.836362e-01	9.186568e-01	1
1.495295e-01	1.056461e-01	9.739674e-02	2.830249e-01	4.315338e-01	6.419003e-01	1.521275e-01	1.348053e-01	1.600642e-01	1.640663e-01	5.571773e-01	3.937246e-01	2.349741e-01	1.063813e-01	1.060982e-03	2.951001e-01	7.895935e-01	9.891428e-01	9.750179e-01	9.211575e-01	0
2.401869e-01	1.341110e-01	7.894995e-02	2.677563e-01	4.147939e-01	6.204379e-01	1.336785e-01	1.178528e-01	1.693022e-01	1.741700e-01	4.418065e-01	3.084358e-01	2.115964e-01	1.028928e-01	6.695844e-04	3.613881e-01	8.024493e-01	9.834370e-01	9.777465e-01	8.920009e-01	1
2.334215e-01	1.355303e-01	9.429403e-02	2.749507e-01	4.027207e-01	6.215460e-01	1.423485e-01	9.764055e-02	1.454861e-01	1.611311e-01	3.854673e-01	2.729041e-01	1.694547e-01	7.256601e-02	1.263516e-04	3.420864e-01	7.900362e-01	9.629062e-01	9.864612e-01	9.152028e-01	1
2.462433e-01	1.428921e-01	1.015340e-01	2.731000e-01	4.342931e-01	6.317515e-01	1.765408e-01	1.306250e-01	1.718926e-01	1.855271e-01	4.127956e-01	2.986906e-01	1.827248e-01	7.641137e-02	6.092678e-04	3.193828e-01	7.744828e-01	9.702551e-01	9.960244e-01	9.233568e-01	1
2.245017e-01	1.159668e-01	9.291040e-02	2.630765e-01	3.957096e-01	5.969384e-01	1.154378e-01	9.258870e-02	1.182420e-01	1.402668e-01	3.823512e-01	2.540194e-01	1.485112e-01	7.677967e-02	2.230123e-03	3.038957e-01	7.750637e-01	9.625115e-01	9.769504e-01	8.963376e-01	1
2.073600e-01	1.036503e-01	6.203129e-02	2.190791e-01	3.618031e-01	5.855125e-01	9.983643e-02	7.820591e-02	1.498675e-01	1.361163e-01	3.860499e-01	2.512193e-01	1.531785e-01	6.401910e-02	6.094219e-04	3.359620e-01	7.463646e-01	9.536326e-01	9.972063e-01	9.000979e-01	1
2.200984e-01	1.126217e-01	7.922427e-02	2.468676e-01	3.771156e-01	5.802350e-01	1.129124e-01	1.066505e-01	1.371693e-01	1.581859e-01	4.394565e-01	3.164609e-01	1.824175e-01	8.171365e-02	1.164891e-03	3.164722e-01	7.643709e-01	9.603579e-01	9.773345e-01	9.177161e-01	1
2.412703e-01	1.241472e-01	7.352155e-02	2.635402e-01	4.051682e-01	6.032269e-01	1.292830e-01	9.636510e-02	1.565926e-01	1.654992e-01	4.029751e-01	2.908312e-01	1.726053e-01	8.610170e-02	1.067852e-03	2.876823e-01	7.513956e-01	9.541842e-01	9.788014e-01	9.067629e-01	1
2.329865e-01	1.063187e-01	7.561417e-02	2.399317e-01	3.652765e-01	6.014380e-01	1.144929e-01	9.671368e-02	1.321163e-01	1.464329e-01	3.793875e-01	2.558217e-01	1.548215e-01	6.919081e-02	3.917637e-05	2.862635e-01	7.259656e-01	9.402454e-01	9.893049e-01	8.954917e-01	1
2.314411e-01	1.103402e-01	7.330727e-02	2.327512e-01	3.649202e-01	5.880852e-01	1.196368e-01	8.075154e-02	1.361005e-01	1.552762e-01	3.353450e-01	2.304458e-01	1.581287e-01	6.773890e-02	0	2.979265e-01	6.943273e-01	9.228446e-01	9.986449e-01	9.331337e-01	1
2.268099e-01	1.141399e-01	7.173465e-02	2.217813e-01	3.442572e-01	5.698859e-01	6.426593e-02	3.205695e-02	7.340835e-02	1.191280e-01	4.408866e-01	3.182395e-01	2.079795e-01	9.640196e-02	1.871447e-05	3.097375e-01	7.298295e-01	9.378624e-01	9.902048e-01	9.140553e-01	1
2.273597e-01	1.126738e-01	8.844949e-02	2.382096e-01	3.883572e-01	6.032779e-01	1.472310e-01	1.310075e-01	1.688983e-01	1.550422e-01	3.118954e-01	2.269103e-01	1.524673e-01	6.922569e-02	1.136578e-03	3.234365e-01	7.434489e-01	9.574566e-01	9.981849e-01	9.385871e-01	1
2.499923e-01	1.206377e-01	8.865249e-02	2.601909e-01	4.060132e-01	6.196806e-01	1.367845e-01	9.230965e-02	1.497638e-01	1.554981e-01	4.515992e-01	3.088217e-01	1.978534e-01	7.921816e-02	2.300277e-04	3.250924e-01	7.717382e-01	9.789936e-01	9.845143e-01	9.587280e-01	1
2.510784e-01	1.417357e-01	9.603719e-02	2.879642e-01	4.155216e-01	6.307484e-01	1.407351e-01	8.757086e-02	1.505079e-01	1.675952e-01	5.195546e-01	3.694800e-01	2.314618e-01	1.109261e-01	1.051585e-03	2.755177e-01	7.491801e-01	9.749840e-01	9.739022e-01	8.880530e-01	1
2.324330e-01	1.462682e-01	1.662063e-01	3.153729e-01	4.727904e-01	8.501622e-01	5.940553e-01	4.226958e-01	3.901167e-01	7.499564e-02	1.654841e-01	1.117598e-01	6.192072e-02	3.350084e-02	7.752500e-04	1.061680e-01	5.011417e-01	8.695918e-01	9.732299e-01	8.114503e-01	1
0	8.697570e-01	8.925103e-01	5.134145e-01	4.505971e-01	2.581481e-01	3.352461e-01	3.657418e-01	4.542833e-01	3.578634e-01	4.157675e-01	2.884742e-01	1.956406e-01	4.008160e-02	2.473581e-02	2.378681e-01	4.022107e-01	5.414928e-01	7.304587e-01	8.755905e-01	1
8.659601e-01	9.638883e-01	9.384923e-01	7.943323e-01	4.951968e-01	3.118380e-01	3.174307e-01	4.136819e-01	3.727101e-01	4.644260e-02	2.061588e-02	3.234509e-01	8.244326e-01	9.854257e-01	9.103078e-01	7.722537e-01	6.420730e-01	5.502092e-01	5.495481e-01	5.375197e-01	0
8.056371e-01	8.616458e-01	5.913257e-01	5.204018e-01	5.101062e-01	5.829704e-01	5.084419e-01	2.906851e-01	3.026110e-01	3.847500e-01	1	8.831387e-01	6.950545e-01	5.478963e-01	2.406523e-01	3.822782e-01	5.709102e-01	6.622051e-01	6.105690e-01	3.958459e-01	0
7.732479e-01	5.478942e-01	3.814664e-01	3.796817e-01	6.299272e-01	9.345609e-01	7.031784e-01	5.649253e-01	2.514228e-01	5.901928e-01	1	7.660934e-01	4.787243e-01	1.921753e-01	1.106348e-02	2.583372e-02	2.084460e-01	2.845926e-01	2.242707e-01	2.194933e-01	0
7.943165e-01	6.945029e-01	4.924658e-01	3.410021e-01	5.133629e-01	4.136769e-01	6.122141e-02	2.462546e-02	1.729589e-01	3.293269e-01	3.700483e-01	2.623940e-01	1.569417e-01	5.250705e-02	1.052966e-02	4.016481e-01	8.107892e-01	9.770808e-01	9.936154e-01	9.482305e-01	0
5.213679e-01	8.723259e-01	7.993227e-01	5.441718e-01	5.970326e-01	7.835154e-01	7.048461e-01	8.743440e-01	4.955304e-01	5.002418e-01	5.369024e-02	9.013428e-03	3.729479e-01	8.087379e-01	9.885111e-01	9.250065e-01	7.299215e-01	5.258770e-01	3.979236e-01	3.433371e-01	0
7.129145e-01	4.140511e-01	2.380594e-01	3.585528e-01	4.075719e-01	4.898397e-01	5.598480e-02	2.721774e-02	5.774259e-02	9.867499e-02	9.820556e-01	6.910704e-01	4.426162e-01	1.915322e-01	1.476629e-04	3.820073e-01	8.342363e-01	9.935129e-01	9.231186e-01	7.811094e-01	1
1.939276e-01	1.654015e-01	1.810123e-01	3.940089e-01	5.281257e-01	6.461605e-01	6.083976e-02	1.561103e-02	5.187255e-02	1.246106e-01	4.703603e-01	3.263940e-01	1.990454e-01	8.186814e-02	1.056327e-04	3.669539e-01	8.274053e-01	9.804802e-01	9.285673e-01	7.719262e-01	1
1.437208e-01	2.793220e-01	2.178462e-01	3.651872e-01	5.150916e-01	6.370384e-01	1.782882e-01	7.964054e-02	3.538299e-02	4.156802e-03	5.312338e-01	4.016043e-01	2.575483e-01	9.957305e-02	9.493077e-03	4.812623e-01	9.012402e-01	9.975420e-01	8.770696e-01	6.721125e-01	0
3.669817e-01	3.645158e-01	2.830948e-01	3.151667e-01	4.363721e-01	4.687457e-01	2.482759e-01	3.940941e-03	5.355292e-02	4.119101e-01	0	4.565677e-02	1.164661e-01	1.820292e-01	2.224886e-01	4.915089e-01	7.807398e-01	9.713048e-01	9.886154e-01	9.587922e-01	1
8.252236e-01	8.944628e-01	7.378542e-01	5.851237e-01	3.259631e-01	1.144921e-01	1.729207e-02	1.412953e-01	4.331168e-01	8.487649e-01	2.921821e-01	7.639872e-01	9.545704e-01	9.649515e-01	9.303856e-01	9.772490e-01	9.228858e-01	7.658828e-01	4.597833e-01	1.830731e-01	0
6.897252e-02	2.281833e-02	3.626171e-01	4.024404e-01	6.681846e-01	8.337004e-01	5.148027e-01	5.574558e-01	6.866688e-01	7.128980e-01	1	5.852513e-01	2.520302e-01	4.538481e-02	9.770662e-03	8.297954e-02	3.705594e-01	4.119417e-01	5.223816e-01	6.364902e-01	1
7.262243e-01	7.310174e-01	3.311685e-01	1.408261e-01	2.422554e-01	2.772962e-01	8.629821e-03	8.416706e-02	2.097258e-01	2.243757e-01	4.112126e-01	2.693307e-01	1.086932e-01	2.088478e-02	2.377610e-02	3.401169e-01	7.534314e-01	9.429152e-01	9.861952e-01	9.456812e-01	1
4.133739e-01	5.339507e-01	2.352053e-01	2.543672e-01	3.767955e-01	4.282680e-01	9.102544e-02	8.347990e-02	3.422776e-01	4.164064e-01	4.405364e-01	2.851405e-01	1.403273e-01	7.437123e-02	2.816822e-05	4.014360e-01	8.292257e-01	9.795691e-01	9.772764e-01	8.859722e-01	1
3.864174e-01	4.171986e-01	2.611280e-01	1.251900e-01	1.752788e-01	3.465878e-01	1.827588e-01	2.515759e-01	2.242456e-02	3.903641e-02	6.025174e-01	3.706118e-01	1.841865e-01	3.522835e-02	2.388714e-03	4.272957e-01	8.807863e-01	9.666902e-01	8.499086e-01	7.758743e-01	0
2.883118e-01	3.219705e-01	5.162608e-01	7.698720e-01	7.216308e-01	8.808307e-01	5.439009e-01	6.125052e-02	1.020576e-02	1.722781e-01	2.805225e-01	2.112795e-01	1.146668e-01	4.399946e-02	6.082156e-04	4.412994e-01	8.959847e-01	9.920984e-01	8.526559e-01	6.506087e-01	0
1.224205e-01	5.897464e-02	1.187096e-01	3.537766e-01	5.285176e-01	7.500656e-01	2.029402e-01	1.638738e-02	1.822427e-02	8.394460e-02	3.815188e-01	2.614260e-01	1.348115e-01	4.838632e-02	1.634572e-02	4.515719e-01	8.886363e-01	9.958531e-01	9.603164e-01	7.959094e-01	0
1.661915e-01	7.237139e-02	7.869363e-02	2.529693e-01	3.957046e-01	5.943938e-01	1.736787e-01	2.106030e-01	2.926014e-01	2.603549e-01	3.981844e-01	2.734661e-01	1.294117e-01	5.894690e-02	2.456226e-02	4.492920e-01	8.733705e-01	9.998732e-01	9.243851e-01	8.198528e-01	0
1.608084e-01	1.189606e-01	1.906899e-01	3.846796e-01	4.356623e-01	5.932331e-01	1.507256e-01	9.702490e-02	8.634376e-02	6.583649e-02	5.126640e-01	3.485263e-01	1.740783e-01	8.071235e-02	3.362320e-02	4.885857e-01	9.163403e-01	9.706988e-01	8.735055e-01	7.504530e-01	1
1.558781e-01	4.457790e-01	3.117636e-01	3.492958e-01	3.794364e-01	4.746421e-01	2.155579e-01	8.973911e-02	1.010035e-02	1.886033e-01	2.420455e-01	1.001878e-01	2.903220e-02	6.263558e-03	3.567378e-02	5.818304e-01	9.726660e-01	9.488156e-01	7.560876e-01	6.676011e-01	1
4.460923e-01	4.033477e-01	4.283853e-01	9.576310e-01	9.071034e-01	8.366015e-01	2.532356e-01	3.245399e-02	1.169595e-01	3.768920e-01	8.990745e-01	9.651024e-01	8.353839e-01	4.315020e-01	9.462410e-02	5.497222e-01	7.037389e-01	5.824451e-01	4.431545e-01	2.347880e-01	0
3.102596e-01	5.936751e-01	7.249350e-01	6.486507e-01	7.238267e-01	9.589099e-01	7.894746e-01	6.559965e-01	4.186853e-01	1.009488e-01	5.825078e-01	6.372169e-01	6.009634e-01	5.396232e-01	5.764923e-01	8.521104e-01	9.794908e-01	3.675951e-01	7.479379e-03	7.914623e-01	1
7.828218e-01	9.818838e-01	9.179399e-01	4.844972e-01	2.822572e-01	2.941263e-01	6.637578e-01	6.943770e-01	5.320532e-01	2.540260e-01	5.566305e-02	1.368539e-01	5.973589e-01	7.769971e-01	9.113539e-01	8.421046e-01	9.078410e-01	9.997461e-01	9.278968e-01	8.014608e-01	0
7.385783e-01	9.751631e-01	9.601561e-01	6.530241e-01	3.623209e-01	1.539066e-01	1.808751e-01	4.554858e-02	1.867728e-01	1.139106e-01	1	9.158072e-01	7.729626e-01	7.223205e-01	6.210602e-01	4.236727e-01	2.390238e-01	1.516823e-01	5.396279e-02	4.723745e-02	1
5.126976e-01	8.546386e-01	7.764266e-01	4.655119e-01	2.514987e-01	2.224367e-01	2.916372e-01	2.588352e-01	2.333308e-01	2.158987e-03	1	8.543187e-01	7.452127e-01	6.822912e-01	5.081962e-01	3.740438e-01	2.358646e-01	2.985104e-02	2.151401e-01	3.244922e-01	1
1.705968e-01	8.608745e-01	7.187533e-01	5.823629e-01	2.648371e-01	2.417190e-01	6.733924e-02	1.160095e-01	2.334611e-01	3.918043e-01	7.599994e-01	8.396076e-01	9.229558e-01	9.733591e-01	9.987344e-01	9.854768e-01	9.565236e-01	8.445729e-01	6.048775e-01	2.851417e-01	1
4.470913e-01	7.631710e-01	4.533611e-01	1.992713e-01	2.661394e-01	2.020204e-01	2.610844e-01	2.625127e-01	3.929563e-02	6.164916e-04	0	2.842921e-01	4.910986e-01	6.351254e-01	7.791658e-01	9.353752e-01	9.932970e-01	9.865413e-01	9.455238e-01	9.043102e-01	0
6.229591e-01	9.243587e-01	8.027178e-01	6.258864e-01	7.165361e-01	7.354593e-01	7.938487e-01	5.577757e-01	2.960975e-01	1.948053e-01	7.638265e-02	3.444838e-02	2.705711e-01	5.788940e-01	7.429451e-01	7.750560e-01	7.183376e-01	7.065071e-01	8.541095e-01	9.626690e-01	1
3.810939e-01	3.378027e-01	6.546092e-01	5.434922e-01	2.474394e-02	2.519119e-01	2.315903e-02	2.431626e-02	1.919662e-01	3.048985e-01	1	8.007683e-01	8.589277e-01	7.790791e-01	8.024204e-01	9.182663e-01	8.676004e-01	7.186333e-01	4.864451e-01	2.003794e-01	0
4.101590e-01	4.479603e-01	1.860387e-01	3.442021e-01	2.543008e-01	5.825858e-01	6.791545e-02	4.082477e-02	1.659700e-01	2.422933e-01	0	3.287011e-01	6.126877e-01	6.979151e-01	7.370511e-01	8.674645e-01	9.964498e-01	9.342546e-01	7.029162e-01	4.437786e-01	1
4.948790e-01	2.534154e-01	7.333660e-02	2.166134e-01	2.698874e-01	6.669242e-01	3.268844e-01	2.974314e-01	3.609938e-01	2.723227e-01	6.289381e-01	6.576351e-01	7.112136e-01	7.807057e-01	8.646159e-01	9.633824e-01	9.989305e-01	8.741987e-01	6.199108e-01	2.811974e-01	0
3.774117e-01	3.555560e-01	4.653750e-01	2.851356e-01	2.064620e-01	2.614778e-01	4.787768e-03	8.537678e-02	2.444446e-01	4.788043e-01	8.535491e-02	3.221377e-02	6.813733e-03	1.017872e-01	2.826398e-01	5.164840e-01	7.079768e-01	8.420555e-01	9.131357e-01	9.603151e-01	1
3.292715e-01	1.837599e-01	8.587970e-02	2.336558e-01	3.132236e-01	4.945296e-01	7.388032e-02	7.838554e-02	6.194610e-02	3.399539e-02	4.390442e-01	3.109338e-01	1.606409e-01	6.340968e-02	8.953432e-02	4.241515e-01	9.030011e-01	9.776591e-01	8.931179e-01	8.595124e-01	1
2.213733e-01	9.523612e-02	6.894931e-02	2.353354e-01	4.545288e-01	7.230878e-01	2.254200e-01	2.090078e-01	2.463149e-01	3.354457e-01	3.961074e-01	2.766264e-01	1.509620e-01	8.763311e-02	1.360179e-02	3.543087e-01	7.711320e-01	9.889306e-01	9.191588e-01	8.713289e-01	1
2.819786e-01	1.675770e-01	1.029721e-01	2.482034e-01	4.244857e-01	5.792196e-01	1.497323e-01	3.215574e-02	2.166135e-01	2.462997e-01	4.051224e-01	3.209524e-01	1.730625e-01	4.331302e-02	8.876326e-03	3.610510e-01	8.488525e-01	9.674247e-01	9.446307e-01	8.328234e-01	1
5.600797e-02	1.251349e-01	6.884186e-02	2.699759e-01	3.524369e-01	6.080926e-01	1.908041e-01	1.329753e-01	1.157175e-01	1.702957e-01	9.435313e-01	6.173516e-01	4.038974e-01	2.539055e-01	4.285667e-02	2.984524e-01	8.109047e-01	9.958128e-01	8.927436e-01	5.589187e-01	0
3.003812e-01	1.440883e-01	8.424465e-02	2.208810e-01	3.578816e-01	6.104075e-01	1.482437e-01	9.019359e-02	1.862348e-01	1.975260e-01	3.179350e-01	1.810486e-01	5.229341e-02	2.379679e-02	3.361905e-03	3.226338e-01	8.073853e-01	9.721979e-01	8.885435e-01	6.501493e-01	1
1.617618e-01	1.091556e-01	1.440194e-01	2.952978e-01	4.125274e-01	5.859282e-01	6.918915e-02	7.702181e-03	9.807898e-02	1.204452e-01	2.958521e-01	2.916386e-01	1.940017e-01	1.240113e-01	2.159566e-04	3.682417e-01	7.958697e-01	9.756770e-01	9.171737e-01	8.036754e-01	1
3.950227e-01	1.680595e-01	8.531415e-02	2.619497e-01	4.371996e-01	6.500235e-01	1.973628e-01	2.670907e-01	3.339695e-01	3.143566e-01	5.196205e-01	3.357943e-01	2.316059e-01	8.172432e-02	6.179596e-04	4.042634e-01	9.233438e-01	9.726247e-01	9.714785e-01	7.352284e-01	0
4.571292e-01	7.047030e-01	6.429816e-01	6.779988e-01	2.022590e-01	3.030546e-01	4.899038e-01	5.501238e-01	3.904181e-02	4.321159e-02	1	9.559851e-01	8.855919e-01	8.242454e-01	7.545432e-01	6.259802e-01	5.443607e-01	4.695164e-01	5.496362e-01	6.551612e-01	0
4.925597e-01	9.016109e-01	8.532428e-01	3.418723e-01	1.239966e-01	6.662744e-02	2.079379e-01	3.019063e-01	4.091061e-02	1.556537e-01	1.622236e-01	7.882418e-02	1.032456e-01	8.386137e-02	7.183045e-03	2.344381e-01	5.108712e-01	7.170499e-01	8.498010e-01	9.481831e-01	1
6.374025e-02	2.381276e-02	1.318959e-01	4.637893e-01	6.128557e-01	9.095203e-01	3.135295e-01	1.643042e-01	2.269769e-01	3.377512e-01	9.894735e-01	7.203929e-01	2.983858e-01	2.008292e-01	5.339747e-02	4.436237e-01	9.756461e-01	9.382095e-01	7.771919e-01	4.680984e-01	0
3.686813e-01	3.433922e-01	8.391701e-02	2.339973e-01	3.094885e-01	7.224891e-01	5.813880e-01	2.468079e-01	1.410602e-01	1.216850e-02	4.519373e-02	2.450236e-02	4.123201e-02	1.160417e-01	1.020896e-01	4.287806e-01	6.695841e-01	9.252333e-01	9.540527e-01	9.937129e-01	1
4.170123e-01	2.644718e-01	2.714991e-01	2.244133e-01	1.750287e-01	4.517100e-01	1.331453e-02	2.076934e-01	6.713643e-01	8.938729e-01	5.325180e-01	4.355932e-01	1.959633e-01	1.170681e-01	1.906095e-02	4.096847e-01	8.182373e-01	9.595306e-01	9.837047e-01	8.099283e-01	1
4.215182e-01	4.329141e-01	3.109869e-01	3.599128e-01	3.872604e-01	5.041997e-01	7.114262e-02	4.804328e-02	2.389902e-01	4.888742e-01	4.495621e-01	2.816266e-01	1.376676e-01	7.940893e-02	1.411677e-02	4.387812e-01	7.601884e-01	9.502396e-01	9.612513e-01	8.803572e-01	1
5.042877e-01	5.102984e-01	3.543430e-01	3.948498e-01	5.373660e-01	5.581471e-01	2.137637e-01	1.028043e-02	2.654256e-01	4.715847e-01	4.609553e-01	2.869344e-01	3.127230e-01	1.850617e-01	5.725710e-02	3.237770e-01	6.837306e-01	8.397762e-01	9.411826e-01	9.472783e-01	1
8.850191e-01	9.503906e-01	9.041187e-01	3.634424e-01	5.987329e-01	5.184816e-01	1.260270e-01	4.679133e-01	4.809434e-01	4.262647e-01	1	7.859707e-01	5.554169e-01	4.056272e-01	1.804920e-01	1.209623e-01	8.184458e-02	5.796779e-02	1.849842e-01	3.303231e-01	0
3.306481e-01	1.728440e-01	1.042823e-01	2.614233e-01	3.554482e-01	5.602355e-01	1.126432e-01	8.768644e-02	1.313945e-01	1.732652e-01	1.063925e-01	4.457424e-02	8.034150e-03	1.229802e-02	2.084004e-02	1.736240e-01	3.753216e-01	6.101631e-01	8.527496e-01	9.852762e-01	1
1.980973e-01	8.146708e-02	6.337942e-02	2.426186e-01	3.746212e-01	5.822405e-01	1.385811e-01	1.307145e-01	1.166333e-01	9.501226e-02	1	8.539911e-01	6.889541e-01	6.877099e-01	7.128849e-01	8.073874e-01	7.777814e-01	6.057047e-01	3.482327e-01	1.238264e-01	0
1.949969e-01	9.245172e-02	8.590450e-02	2.560011e-01	3.568360e-01	5.780690e-01	1.866428e-01	1.070209e-01	1.540159e-01	1.236324e-01	4.047472e-01	3.505642e-01	3.223113e-01	1.809349e-01	4.253604e-04	2.768817e-01	6.219273e-01	8.996205e-01	9.773831e-01	9.457218e-01	0
1.473812e-01	8.122830e-02	9.116470e-02	2.173019e-01	3.860805e-01	5.844921e-01	1.112367e-01	4.333632e-02	1.110653e-01	1.139134e-01	7.488776e-01	7.054290e-01	6.256196e-01	3.377627e-01	4.164453e-02	2.031959e-01	5.762101e-01	8.308238e-01	9.851707e-01	9.334960e-01	1
1.741650e-01	8.226808e-02	8.040870e-02	2.162016e-01	3.246924e-01	5.483567e-01	8.677796e-02	3.303804e-02	9.625886e-02	1.008417e-01	3.200695e-01	2.225416e-01	2.673037e-01	1.745809e-01	1.413247e-03	2.809949e-01	7.249890e-01	9.494126e-01	9.609668e-01	8.392000e-01	1
1.953266e-01	6.606337e-02	8.732565e-02	2.103274e-01	3.468457e-01	5.447994e-01	8.250485e-02	1.024922e-01	1.342767e-01	1.365969e-01	7.194689e-01	4.444358e-01	2.689349e-01	1.399884e-01	1.786852e-04	2.152835e-01	5.547853e-01	7.830350e-01	8.639198e-01	9.233074e-01	1
1.787762e-01	7.189357e-02	5.400668e-02	2.239064e-01	3.453472e-01	5.476052e-01	9.927012e-02	3.865671e-02	1.143864e-01	1.033627e-01	5.669809e-01	3.552226e-01	2.064112e-01	9.318454e-02	1.227728e-02	2.848149e-01	6.536593e-01	9.015209e-01	9.915948e-01	9.078305e-01	1
2.212911e-01	9.752393e-02	7.893949e-02	2.473155e-01	3.539875e-01	5.570506e-01	1.254994e-01	1.305905e-01	1.515813e-01	1.219250e-01	3.769945e-01	2.656409e-01	1.568274e-01	8.156545e-02	3.190541e-03	1.381141e-01	3.929924e-01	7.299769e-01	9.681763e-01	9.881494e-01	0
2.094793e-01	4.172432e-02	9.278048e-02	1.795437e-01	3.275300e-01	5.357201e-01	1.004568e-01	8.094826e-02	1.336577e-01	1.694765e-01	7.275854e-01	8.385960e-01	9.599356e-01	9.957002e-01	9.871619e-01	9.990661e-01	9.097150e-01	7.052815e-01	4.914828e-01	2.531684e-01	1
2.239677e-01	1.587011e-02	6.636986e-02	2.086768e-01	2.990409e-01	5.268627e-01	6.436620e-02	6.576914e-02	9.931683e-02	1.488039e-01	0	1.122112e-01	2.425512e-01	3.514729e-01	4.151520e-01	5.801933e-01	7.639726e-01	9.211108e-01	9.944421e-01	9.837814e-01	1
1.637860e-01	8.250337e-02	8.465065e-02	2.096448e-01	3.010049e-01	4.761790e-01	2.408933e-02	3.812272e-02	1.209778e-01	1.112105e-01	3.065414e-01	1.961019e-01	1.231296e-01	4.524575e-02	1.306684e-03	2.478742e-01	5.988340e-01	8.458589e-01	9.731571e-01	9.952475e-01	1
2.599412e-01	1.331899e-01	7.766203e-02	2.163214e-01	3.407489e-01	5.313925e-01	1.532425e-01	1.264853e-01	1.388484e-01	1.185592e-01	9.250677e-01	8.801380e-01	9.321442e-01	9.704024e-01	9.842459e-01	9.983638e-01	8.757482e-01	5.770558e-01	2.927744e-01	8.917183e-02	0
2.643267e-01	2.283969e-01	1.350069e-01	2.814203e-01	2.801993e-01	4.179826e-01	6.162089e-02	6.968528e-02	1.775898e-01	1.657140e-01	0	2.045810e-01	3.403694e-01	3.982991e-01	4.306810e-01	5.496452e-01	7.301290e-01	8.837073e-01	9.718097e-01	9.981030e-01	0
1.884670e-01	8.558786e-02	1.080875e-01	2.302161e-01	3.335028e-01	4.926104e-01	1.237126e-01	7.148552e-02	1.384848e-01	1.654985e-01	3.721658e-01	2.294530e-01	1.130463e-01	3.311769e-02	3.506188e-02	2.919609e-01	6.692805e-01	8.595039e-01	9.531607e-01	9.802808e-01	1
1.962792e-01	9.716160e-02	9.618503e-02	2.419901e-01	3.806676e-01	5.624445e-01	1.626352e-01	1.286124e-01	1.693381e-01	1.835809e-01	4.603066e-01	2.996214e-01	2.026661e-01	8.590260e-02	8.895518e-03	3.283946e-01	7.237621e-01	9.749260e-01	9.995893e-01	9.056574e-01	1
1.797943e-01	8.962132e-02	8.307206e-02	2.034861e-01	3.505359e-01	5.668235e-01	7.371302e-02	5.895574e-02	7.571206e-02	1.069819e-01	4.153723e-01	2.705977e-01	1.502159e-01	6.799505e-02	3.129047e-02	3.332955e-01	7.225468e-01	9.561821e-01	9.544656e-01	8.577430e-01	1
1.503840e-01	7.004073e-02	5.535463e-02	1.626843e-01	2.737657e-01	5.052069e-01	4.715783e-02	5.856146e-02	9.796285e-02	7.383862e-02	5.508545e-01	3.902950e-01	2.827542e-01	9.885596e-02	2.084311e-04	2.591904e-01	6.649911e-01	9.636501e-01	9.907495e-01	9.026641e-01	1
1.836475e-01	9.590903e-02	1.329447e-01	2.026114e-01	3.500776e-01	5.821724e-01	1.507400e-01	8.652989e-02	1.402243e-01	1.399793e-01	3.147076e-01	2.007580e-01	9.520115e-02	2.597970e-02	5.417323e-02	3.247519e-01	7.461370e-01	9.383264e-01	9.774742e-01	9.174874e-01	1
1.932536e-01	8.958927e-02	9.226624e-02	2.326677e-01	3.506196e-01	5.237114e-01	6.241431e-02	8.726910e-02	9.567118e-02	1.339407e-01	6.605398e-01	5.342534e-01	3.210816e-01	9.036581e-02	6.411990e-05	2.968458e-01	6.942733e-01	9.358403e-01	9.537840e-01	5.829736e-01	1
2.258989e-01	1.047879e-01	7.421803e-02	1.925766e-01	3.220113e-01	5.092356e-01	1.022910e-01	9.297777e-02	1.130526e-01	1.640178e-01	9.178166e-02	2.378405e-02	1.730766e-02	2.196776e-02	4.253930e-02	3.070080e-01	6.307346e-01	8.684050e-01	9.832484e-01	9.944877e-01	1
2.051439e-01	1.034801e-01	8.481709e-02	2.274336e-01	3.064073e-01	5.239250e-01	9.513853e-02	9.327920e-02	1.411493e-01	1.475076e-01	5.318882e-01	4.183970e-01	3.078037e-01	1.281623e-01	5.945446e-05	2.163285e-01	6.140428e-01	8.900092e-01	9.995884e-01	9.002308e-01	1
2.210595e-01	1.010597e-01	7.012343e-02	1.967475e-01	3.324969e-01	5.405765e-01	7.917902e-02	9.387539e-02	1.323231e-01	1.379609e-01	4.420878e-01	3.312085e-01	2.090468e-01	9.354131e-02	2.942635e-03	1.844839e-01	5.617602e-01	8.290700e-01	9.896945e-01	9.970338e-01	1
2.080257e-01	7.726693e-02	6.921516e-02	2.175041e-01	3.466606e-01	5.387509e-01	1.444117e-01	1.335762e-01	2.485962e-01	2.127206e-01	3.514304e-01	5.017933e-01	6.291051e-01	6.809972e-01	6.491995e-01	7.772138e-01	9.308542e-01	9.384518e-01	6.501950e-01	3.486799e-01	1
3.102306e-01	1.332303e-01	7.185867e-02	2.097723e-01	3.270500e-01	5.379304e-01	1.462979e-01	1.401659e-01	2.011813e-01	1.191179e-01	1.401090e-02	4.642526e-04	3.670274e-02	7.242637e-02	9.489798e-02	3.443192e-01	6.306383e-01	8.703765e-01	9.740405e-01	9.844922e-01	1
2.778935e-01	1.358857e-01	7.410067e-02	2.928889e-01	4.275601e-01	6.116867e-01	1.431299e-01	1.141693e-01	1.617341e-01	1.565241e-01	6.919438e-01	3.891057e-01	2.168259e-01	3.223786e-02	2.132735e-02	3.199142e-01	7.043486e-01	9.392505e-01	9.592466e-01	7.483884e-01	1
2.191808e-01	9.114970e-02	4.204843e-02	1.734521e-01	3.167399e-01	5.433130e-01	8.811749e-02	7.720237e-02	1.279388e-01	1.124440e-01	8.848423e-01	9.423997e-01	9.976281e-01	9.415756e-01	5.817141e-01	2.125126e-01	9.255015e-02	8.864626e-02	1.621267e-01	1.032743e-01	0
1.762448e-01	6.371478e-02	1.331292e-01	2.681395e-01	3.860035e-01	5.618926e-01	3.664393e-02	7.303480e-02	1.560071e-01	1.554625e-01	0	1.831771e-01	3.396765e-01	4.227087e-01	4.614050e-01	5.881362e-01	7.616954e-01	8.912035e-01	9.588923e-01	9.935943e-01	1
2.251062e-01	1.436854e-01	7.694800e-02	2.734580e-01	4.399567e-01	6.062140e-01	1.602690e-01	1.140577e-01	1.951660e-01	2.003046e-01	4.174447e-01	3.528530e-01	2.655223e-01	1.276490e-01	1.245003e-02	3.382931e-01	7.130889e-01	9.234309e-01	9.457672e-01	8.566380e-01	0
2.106114e-01	9.793434e-02	6.913996e-02	2.214514e-01	3.743990e-01	5.588232e-01	1.262085e-01	8.738024e-02	1.400786e-01	1.752587e-01	7.832633e-01	5.262955e-01	3.488525e-01	1.394148e-01	3.930809e-03	2.301164e-01	6.651936e-01	9.386706e-01	9.740922e-01	9.360041e-01	1
1.580192e-01	1.036488e-01	7.791939e-02	2.024841e-01	3.022714e-01	5.108549e-01	6.237253e-03	8.448228e-02	1.517461e-01	1.125608e-01	3.980230e-01	2.670672e-01	1.688331e-01	8.366858e-02	3.867121e-03	2.239706e-01	6.300260e-01	9.206145e-01	9.979656e-01	9.784525e-01	1
1.846038e-01	7.616668e-02	5.576781e-02	1.861006e-01	4.327362e-01	6.455171e-01	1.755391e-01	1.281619e-01	1.998638e-01	2.505951e-01	2.446876e-01	1.682531e-01	1.090489e-01	5.167387e-02	1.403057e-03	2.553845e-01	6.321476e-01	8.990826e-01	9.713697e-01	8.179813e-01	0
2.290393e-01	9.770082e-02	1.071913e-01	2.105141e-01	2.619746e-01	5.555640e-01	1.485625e-01	8.580507e-02	4.616067e-02	5.174991e-02	7.040839e-01	4.110385e-01	2.524220e-01	1.343920e-01	1.699402e-02	2.756319e-01	6.465587e-01	8.997766e-01	9.786256e-01	9.001523e-01	1
3.293790e-01	2.180191e-01	1.778021e-01	3.423566e-01	5.712862e-01	7.460119e-01	2.952770e-01	1.601653e-01	1.393129e-01	1.353790e-02	4.528807e-01	3.008151e-01	1.811238e-01	5.405928e-02	1.868855e-04	2.715658e-01	6.601016e-01	8.941946e-01	9.874103e-01	9.689358e-01	0
2.449242e-01	1.370134e-01	9.698142e-02	3.358001e-01	4.444231e-01	6.720372e-01	1.554784e-01	2.298605e-02	3.720926e-01	4.912831e-01	7.994048e-01	6.324207e-01	4.077579e-01	1.703327e-01	5.988932e-04	2.010073e-01	6.191897e-01	9.362547e-01	9.621970e-01	8.415804e-01	0
3.895762e-01	2.074833e-01	7.944373e-02	2.879187e-01	5.351357e-01	6.566085e-01	1.721933e-01	1.626737e-01	1.671029e-01	1.866457e-01	3.087774e-01	1.832019e-01	7.289803e-02	1.545744e-02	2.164775e-02	2.033979e-01	4.904193e-01	7.179248e-01	8.584448e-01	9.360465e-01	0
5.826113e-01	3.665597e-01	5.105628e-02	3.257878e-01	6.779621e-01	9.776812e-01	6.804261e-01	6.147007e-01	6.795881e-01	6.101026e-01	9.022265e-01	8.124343e-01	7.483466e-01	5.414733e-01	3.772304e-01	5.427581e-01	9.107495e-01	9.943377e-01	8.265349e-01	3.615386e-01	0
5.729032e-01	6.178443e-01	4.710345e-01	4.279011e-01	4.208199e-01	5.214996e-01	4.777718e-02	3.265300e-01	7.765906e-01	8.988530e-01	2.182293e-01	4.830260e-02	2.479632e-02	2.247477e-01	3.330430e-01	6.130215e-01	8.979392e-01	9.850743e-01	9.568182e-01	7.384566e-01	0
6.123902e-01	8.216539e-01	8.192885e-01	7.678728e-01	7.388649e-01	6.508785e-01	5.144079e-01	2.983213e-01	8.807589e-02	1.813034e-01	8.237733e-01	8.936059e-01	9.848424e-01	9.634691e-01	7.218214e-01	2.771697e-01	5.694944e-03	1.216308e-01	3.417375e-01	4.823242e-01	1
3.603400e-01	3.359540e-01	2.017702e-01	2.633108e-01	3.445911e-01	5.921527e-01	6.593032e-02	7.919736e-02	4.931802e-02	3.057338e-01	1	7.447334e-01	5.067164e-01	1.886373e-01	2.402589e-02	1.698308e-02	1.824069e-01	4.338232e-01	6.210464e-01	8.058414e-01	1
3.741558e-01	2.472151e-01	4.446764e-01	4.685091e-01	4.788352e-01	5.640697e-01	3.053153e-02	4.270560e-02	1.777295e-01	2.631625e-01	9.076910e-01	5.415179e-01	3.228869e-01	8.392419e-02	3.725357e-02	4.380066e-01	7.970894e-01	9.877147e-01	9.035874e-01	7.669431e-01	0
3.364596e-01	2.075356e-01	1.904264e-01	4.184700e-01	5.198350e-01	7.153727e-01	2.362033e-01	2.015540e-01	1.908440e-01	1.365943e-02	7.189623e-01	4.393483e-01	2.829623e-01	1.070139e-01	1.856946e-02	3.511060e-01	7.239803e-01	9.675188e-01	9.517001e-01	9.449859e-01	1
1.813502e-01	1.534819e-01	1.302447e-01	3.040083e-01	4.952115e-01	6.902852e-01	2.009529e-01	1.644391e-01	1.567037e-01	3.544560e-01	7.261314e-01	4.886073e-01	2.896620e-01	4.854685e-02	1.963764e-02	5.478458e-01	9.222183e-01	9.550804e-01	8.817943e-01	7.343989e-01	1
1.804210e-01	9.462667e-02	1.409819e-01	3.427397e-01	4.659952e-01	7.015316e-01	1.191333e-01	1.253804e-01	8.707442e-02	7.999737e-02	6.469037e-01	5.426603e-01	3.446397e-01	1.396610e-01	4.713836e-02	3.486008e-01	7.492769e-01	8.907501e-01	9.494465e-01	8.501864e-01	0
1.954529e-01	1.466440e-01	1.664256e-01	3.999454e-01	4.485843e-01	7.161090e-01	1.055023e-01	8.686642e-02	1.769673e-01	1.403401e-01	4.160117e-01	2.734545e-01	1.981818e-01	1.228856e-01	9.970674e-04	4.965982e-01	8.716246e-01	9.672375e-01	9.036833e-01	7.731144e-01	0
8.868671e-01	9.892028e-01	9.769237e-01	8.322027e-01	7.505180e-01	4.568227e-01	2.969330e-01	1.823479e-01	8.535067e-02	1.510544e-03	9.994768e-01	7.834138e-01	5.989353e-01	4.056147e-01	2.953992e-01	1.748174e-01	4.410438e-02	1.126648e-01	5.484761e-01	8.735184e-01	0
8.163087e-01	7.273753e-01	5.597562e-01	3.948922e-01	2.313436e-01	1.613673e-01	7.310413e-04	9.067148e-02	2.432336e-01	4.242714e-01	5.971795e-01	3.767032e-01	2.983268e-01	1.322381e-01	3.492711e-02	3.663484e-01	8.278957e-01	9.922174e-01	9.631088e-01	7.950149e-01	1
1.807136e-02	7.688469e-03	3.115547e-01	5.222794e-01	6.005894e-01	6.723931e-01	1.503852e-01	1.806562e-01	2.490762e-01	5.569852e-01	4.306652e-01	3.146224e-01	2.116045e-01	7.667217e-02	5.494169e-02	4.201488e-01	8.589483e-01	9.673267e-01	9.713586e-01	9.363163e-01	1
8.513405e-01	9.841822e-01	9.631674e-01	7.904875e-01	5.244329e-01	2.552230e-01	5.604820e-02	1.928919e-01	1.712912e-01	4.354300e-01	9.999103e-01	8.584664e-01	7.699695e-01	7.170226e-01	5.489259e-01	4.638647e-01	3.342538e-01	2.834863e-01	1.318608e-01	1.557895e-02	0
9.352930e-01	9.951025e-01	9.528339e-01	7.278932e-01	4.110224e-01	1.428321e-01	8.428208e-03	5.544762e-02	1.874744e-01	4.281438e-01	3.495194e-01	8.738915e-01	9.985486e-01	8.819400e-01	7.671054e-01	5.437546e-01	5.216761e-01	3.062273e-01	1.882113e-01	9.217122e-02	1
6.632381e-01	5.209505e-01	3.232983e-01	2.064030e-01	1.363146e-01	1.983410e-01	2.511022e-04	1.631976e-01	3.715317e-01	5.204799e-01	3.373083e-01	2.528056e-01	1.073107e-01	4.808933e-02	3.454988e-03	3.766876e-01	7.919690e-01	9.491203e-01	9.795237e-01	8.797767e-01	1
2.370981e-01	1.777703e-01	1.324805e-01	1.784890e-01	2.073179e-01	3.454171e-01	1.569627e-02	8.449608e-02	1.927845e-01	2.632156e-01	4.015585e-01	3.284884e-01	2.406788e-01	1.282034e-01	3.446936e-02	3.704706e-01	8.754167e-01	9.434692e-01	8.897880e-01	8.566413e-01	1
3.155967e-01	1.518251e-01	1.062100e-01	2.925587e-01	4.413113e-01	6.267968e-01	1.993969e-01	1.596217e-01	8.921891e-02	9.975618e-03	3.297012e-01	1.791116e-01	8.518027e-02	1.603593e-02	8.161501e-02	4.410884e-01	9.167798e-01	9.648722e-01	9.964502e-01	8.437153e-01	1
3.403753e-01	2.113763e-01	1.480645e-01	2.318915e-01	3.420583e-01	5.426350e-01	1.641642e-01	1.782096e-01	1.504033e-01	7.785961e-02	3.822152e-01	2.664702e-01	7.169840e-02	2.505289e-02	2.363252e-02	2.847235e-01	7.319281e-01	9.749924e-01	9.192354e-01	7.892415e-01	1
3.134283e-01	3.835325e-01	5.070502e-01	6.664696e-01	7.181793e-01	6.981446e-01	2.499521e-01	6.784100e-02	1.022893e-02	4.638602e-02	3.737843e-01	2.475281e-01	1.757424e-01	4.214742e-02	6.825795e-03	3.884295e-01	8.089328e-01	9.701756e-01	8.599239e-01	7.885266e-01	1
1.519670e-01	5.348355e-02	6.371559e-02	2.067383e-01	3.372937e-01	5.167833e-01	5.328415e-02	1.143497e-01	1.813090e-01	2.738431e-01	4.004217e-01	2.008722e-01	1.902905e-01	3.096799e-02	8.452452e-03	4.761670e-01	8.724919e-01	9.672365e-01	9.749190e-01	7.484600e-01	1
3.201725e-01	1.990813e-01	2.048019e-01	3.605616e-01	4.794236e-01	6.258635e-01	2.236351e-01	1.587720e-01	1.023312e-01	3.733068e-02	4.065796e-01	3.572771e-01	2.182293e-01	9.183873e-02	3.776767e-02	3.542800e-01	8.282532e-01	9.921366e-01	8.913047e-01	8.493125e-01	1
2.546338e-01	1.571763e-01	1.128556e-01	2.155149e-01	3.033260e-01	4.391307e-01	1.365735e-02	2.267669e-02	6.391393e-02	9.210768e-02	3.873650e-01	2.759463e-01	1.667829e-01	1.370354e-01	2.638504e-03	2.587224e-01	7.536628e-01	9.176120e-01	8.399970e-01	6.980697e-01	1
2.672132e-01	1.114543e-01	6.168109e-02	2.020017e-01	3.152861e-01	5.385563e-01	2.213178e-01	3.056673e-01	3.774794e-01	3.706381e-01	3.394391e-01	2.910933e-01	1.165954e-01	6.014584e-02	2.352080e-02	4.888705e-01	8.326242e-01	9.127684e-01	8.546746e-01	8.177037e-01	1
1.043973e-01	1.051738e-01	1.722640e-01	3.526538e-01	4.591771e-01	5.383075e-01	6.359576e-02	1.189849e-02	7.890544e-03	1.203973e-02	4.535249e-01	3.279558e-01	3.185872e-01	4.330541e-02	6.996526e-02	2.730640e-01	8.177900e-01	9.860764e-01	8.512934e-01	7.254192e-01	1
6.701973e-01	6.409416e-01	6.448562e-01	5.719393e-01	4.389242e-01	4.013905e-01	1.262827e-01	2.040425e-02	1.269174e-03	1.888205e-02	0	1.986964e-01	6.713423e-01	8.717777e-01	9.990614e-01	9.512332e-01	8.647823e-01	8.318507e-01	8.132293e-01	7.895820e-01	1
3.039593e-01	1.187010e-01	6.933087e-02	2.668498e-01	4.198794e-01	6.876027e-01	4.039092e-01	4.161286e-01	3.644709e-01	3.406487e-01	3.397760e-02	2.641543e-02	6.478430e-02	1.108926e-01	2.130862e-01	3.999499e-01	6.110960e-01	7.497392e-01	8.697221e-01	9.489163e-01	1
1.772419e-01	7.776895e-02	8.474250e-02	2.670454e-01	4.121669e-01	5.632067e-01	9.002267e-02	5.871147e-02	6.564579e-02	5.919125e-02	0	5.900412e-02	6.709005e-02	6.382336e-02	7.924353e-02	2.484720e-01	4.892937e-01	7.941916e-01	9.354109e-01	9.565566e-01	1
1.991065e-01	9.418306e-02	6.053762e-02	2.022276e-01	3.064503e-01	4.753850e-01	1.006559e-01	1.054819e-01	1.567431e-01	1.280809e-01	2.034700e-01	1.064684e-01	5.646041e-02	2.392049e-02	1.958646e-03	1.151851e-01	2.547699e-01	4.812644e-01	6.628073e-01	8.789112e-01	1
7.994255e-02	5.339798e-02	8.471503e-02	2.138732e-01	2.759978e-01	4.808531e-01	1.124204e-01	5.502737e-02	6.933835e-03	2.341439e-02	3.754279e-02	3.290954e-02	1.692543e-02	7.270171e-02	9.905868e-02	2.486094e-01	4.137647e-01	6.743252e-01	8.518857e-01	9.332775e-01	1
1.598017e-01	5.656928e-02	8.105449e-02	2.245618e-01	2.983332e-01	4.289414e-01	4.262849e-02	1.275168e-01	2.224429e-01	3.638984e-01	9.952583e-01	9.059809e-01	7.481094e-01	4.717945e-01	1.121205e-01	1.040950e-01	4.585816e-01	8.233929e-01	8.658754e-01	6.267159e-01	0
2.727979e-01	1.679057e-01	1.930100e-01	4.305947e-01	6.609992e-01	8.599035e-01	3.804941e-01	2.064095e-01	6.591665e-02	9.435911e-05	6.748504e-01	5.106714e-01	3.192405e-01	1.589239e-01	7.236539e-03	3.200446e-02	3.287026e-01	6.635289e-01	8.444675e-01	9.211756e-01	1
1.343186e-01	9.827267e-02	8.331714e-02	1.744587e-01	2.528929e-01	4.036973e-01	2.277919e-02	2.312700e-02	4.078469e-02	9.589319e-02	1.150725e-01	7.341157e-02	3.715336e-02	1.957342e-02	3.229550e-02	9.478973e-02	3.800766e-01	6.748264e-01	8.761889e-01	9.886348e-01	1
3.182213e-01	2.569889e-01	2.843021e-01	4.583741e-01	5.850543e-01	7.523869e-01	4.036496e-01	3.208256e-01	2.174645e-01	5.392848e-02	1	8.395930e-01	6.128966e-01	3.284675e-01	3.787772e-02	9.080502e-02	4.216392e-01	7.457441e-01	9.504074e-01	9.200893e-01	1
7.527144e-01	4.788258e-01	1.348509e-01	1.249525e-02	5.651539e-02	3.328965e-01	2.820611e-01	4.131232e-01	3.742773e-01	2.085917e-01	4.282518e-01	3.578232e-01	2.588889e-01	1.422924e-01	2.034239e-02	7.373155e-02	3.679065e-01	6.475723e-01	8.586084e-01	9.655023e-01	1
4.472515e-01	6.522290e-01	6.365725e-01	7.993659e-01	7.715527e-01	6.132279e-01	2.326835e-01	8.631315e-02	8.427432e-02	1.554006e-02	9.972454e-01	9.265909e-01	7.739663e-01	4.263568e-01	5.561677e-02	1.539370e-01	5.481772e-01	8.893076e-01	9.921981e-01	9.082130e-01	1
8.975944e-01	9.832149e-01	9.164470e-01	5.417030e-01	3.799710e-01	1.920987e-01	3.576632e-02	6.548579e-02	1.298181e-01	1.882335e-01	3.241160e-01	8.734333e-04	8.129168e-02	2.764312e-01	4.623015e-01	6.411182e-01	7.996232e-01	9.033473e-01	9.742852e-01	9.912833e-01	0
5.877040e-01	6.579483e-01	6.366575e-01	4.746558e-01	4.132916e-01	3.941401e-01	1.827280e-01	3.526159e-03	2.780083e-01	6.387439e-01	2.153256e-01	1.225411e-01	3.494482e-02	3.884868e-02	3.590847e-03	2.653190e-01	6.702575e-01	8.803238e-01	9.994513e-01	8.370754e-01	1
4.838059e-01	3.922064e-01	4.382089e-01	7.199419e-01	4.685750e-01	3.503148e-01	1.889907e-02	3.802492e-02	1.261072e-01	1.701756e-02	2.028441e-01	1.129915e-01	3.428879e-02	1.130212e-02	5.160955e-04	2.980611e-01	6.365271e-01	8.700375e-01	9.895630e-01	9.821928e-01	1
5.051771e-01	4.876035e-01	3.979967e-01	3.763525e-01	4.445575e-01	5.957690e-01	3.528173e-01	3.425023e-01	3.109763e-01	2.009108e-01	4.205876e-01	2.123347e-01	1.093311e-01	6.960730e-02	8.667335e-03	4.040935e-01	8.283817e-01	9.882523e-01	8.932845e-01	5.706061e-01	1
8.297400e-01	9.187756e-01	8.508569e-01	7.077839e-01	7.082782e-01	4.815729e-01	2.788265e-01	2.626621e-01	1.294778e-01	2.310571e-01	2.484531e-02	3.720962e-02	9.035909e-02	9.097168e-03	1.806307e-01	4.669643e-01	7.366580e-01	9.034575e-01	9.981972e-01	9.438601e-01	0
5.242236e-01	5.472327e-01	3.953000e-01	3.937497e-01	4.453830e-01	4.939355e-01	1.752170e-01	8.819148e-02	4.263613e-02	1.362923e-02	1	7.016125e-01	4.753526e-01	1.685395e-01	1.372263e-03	1.441049e-01	4.134867e-01	6.474665e-01	6.712167e-01	7.222061e-01	1
9.753964e-02	4.829790e-02	9.894481e-02	2.802575e-01	3.936796e-01	5.617138e-01	9.235636e-02	1.072356e-01	1.779506e-01	2.109562e-01	9.529177e-02	4.893131e-02	3.136220e-02	8.871448e-02	1.571607e-01	3.256307e-01	5.458083e-01	7.571675e-01	8.513289e-01	9.621418e-01	1
2.159667e-01	9.680010e-02	7.697194e-02	2.290441e-01	4.204068e-01	6.099547e-01	1.625375e-01	1.921396e-01	2.155714e-01	1.944553e-01	1	8.671257e-01	6.773147e-01	3.288881e-01	1.975988e-02	5.850941e-02	2.911104e-01	4.319935e-01	4.224141e-01	5.330549e-01	1
