nan	nan	nan	
0.382684	0.641578	0.001153	
0.382301	0.641413	0.001152	
0.080798	0.456984	0.001056	
0.080797	0.456984	0.001056	
0.080799	0.456986	0.001056	
0.081556	0.457959	0.001056	
0.112030	0.491781	0.001073	
0.009431	0.262856	0.000955	
0.000072	0.051285	0.000767	
0.000353	0.090836	0.000824	
0.000353	0.090839	0.000824	
0.000353	0.090840	0.000824	
0.000353	0.090840	0.000824	
0.000353	0.090840	0.000824	
0.000353	0.090840	0.000824	
0.000353	0.090840	0.000824	
0.000353	0.090840	0.000824	
0.000353	0.090840	0.000824	
0.000353	0.090840	0.000824	
0.000353	0.090840	0.000824	
0.000353	0.090840	0.000824	
0.000353	0.090840	0.000824	
0.000353	0.090840	0.000824	
0.000353	0.090840	0.000824	
0.000353	0.090840	0.000824	
0.000353	0.090840	0.000824	
0.000353	0.090840	0.000824	
0.000353	0.090840	0.000824	
0.000353	0.090840	0.000824	
0.000353	0.090840	0.000824	
0.000353	0.090840	0.000824	
0.000353	0.090840	0.000824	
0.000353	0.090840	0.000824	
0.000353	0.090840	0.000824	
0.000353	0.090840	0.000824	
0.000353	0.090840	0.000824	
0.000353	0.090840	0.000824	
0.000353	0.090840	0.000824	
0.000353	0.090840	0.000824	
0.000353	0.090840	0.000824	
0.000353	0.090840	0.000824	
0.000353	0.090840	0.000824	
0.000353	0.090840	0.000824	
0.000353	0.090841	0.000824	
0.000354	0.090847	0.000824	
0.000355	0.090947	0.000824	
0.000373	0.092529	0.000826	
0.000715	0.115960	0.000850	
0.003667	0.198080	0.000915	
0.005121	0.219466	0.000929	
0.005237	0.220963	0.000930	
0.005244	0.221052	0.000930	
0.005245	0.221057	0.000930	
0.005245	0.221057	0.000930	
0.005245	0.221057	0.000930	
0.005245	0.221057	0.000930	
0.005245	0.221057	0.000930	
0.005245	0.221057	0.000930	
0.005245	0.221057	0.000930	
0.005245	0.221057	0.000930	
0.005245	0.221057	0.000930	
0.005245	0.221057	0.000930	
0.005245	0.221057	0.000930	
0.005245	0.221057	0.000930	
0.005245	0.221057	0.000930	
0.005245	0.221057	0.000930	
0.005245	0.221057	0.000930	
0.005245	0.221057	0.000930	
0.005245	0.221057	0.000930	
0.005245	0.221057	0.000930	
0.005245	0.221057	0.000930	
0.005245	0.221057	0.000930	
0.005245	0.221057	0.000930	
0.005245	0.221057	0.000930	
0.005245	0.221057	0.000930	
0.005245	0.221057	0.000930	
0.005245	0.221057	0.000930	
0.005245	0.221057	0.000930	
0.005245	0.221057	0.000930	
0.005245	0.221057	0.000930	
0.005245	0.221059	0.000930	
0.005245	0.221059	0.000930	
0.005245	0.221059	0.000930	
0.005245	0.221059	0.000930	
0.005245	0.221059	0.000930	
0.005245	0.221059	0.000930	
0.005245	0.221059	0.000930	
0.005245	0.221059	0.000930	
0.005245	0.221059	0.000930	
0.005245	0.221059	0.000930	
0.005245	0.221059	0.000930	
0.005245	0.221059	0.000930	
0.005245	0.221060	0.000930	
0.005245	0.221060	0.000930	
0.005245	0.221060	0.000930	
0.005245	0.221060	0.000930	
0.005245	0.221061	0.000930	
0.005245	0.221061	0.000930	
0.005245	0.221063	0.000930	
0.005245	0.221063	0.000930	
0.005246	0.221066	0.000930	
0.005246	0.221070	0.000930	
0.005246	0.221076	0.000930	
0.005247	0.221086	0.000930	
0.005248	0.221097	0.000930	
0.005248	0.221095	0.000930	
0.005229	0.220859	0.000930	
0.005029	0.218263	0.000928	
0.003738	0.199262	0.000916	
0.001813	0.158269	0.000887	
0.001346	0.143502	0.000875	
0.001293	0.141601	0.000873	
0.001291	0.141527	0.000873	
0.001296	0.141711	0.000873	
0.001303	0.141979	0.000873	
0.001312	0.142294	0.000874	
0.001321	0.142628	0.000874	
0.001332	0.142992	0.000874	
0.001342	0.143372	0.000875	
0.001354	0.143787	0.000875	
0.001365	0.144184	0.000875	
0.001375	0.144533	0.000876	
0.001384	0.144837	0.000876	
0.001390	0.145034	0.000876	
0.001392	0.145128	0.000876	
0.001393	0.145146	0.000876	
0.001391	0.145071	0.000876	
0.001387	0.144941	0.000876	
0.001381	0.144737	0.000876	
0.001374	0.144488	0.000876	
0.001367	0.144235	0.000875	
0.001358	0.143934	0.000875	
0.001349	0.143628	0.000875	
0.001341	0.143320	0.000875	
0.001332	0.143006	0.000874	
0.001323	0.142701	0.000874	
0.001316	0.142427	0.000874	
0.001310	0.142207	0.000874	
0.001304	0.142018	0.000874	
0.001300	0.141868	0.000873	
0.001297	0.141746	0.000873	
0.001294	0.141654	0.000873	
0.001293	0.141591	0.000873	
0.001291	0.141545	0.000873	
0.001291	0.141518	0.000873	
0.001290	0.141494	0.000873	
0.001289	0.141475	0.000873	
0.001289	0.141458	0.000873	
0.001288	0.141421	0.000873	
0.001286	0.141354	0.000873	
0.001283	0.141230	0.000873	
0.001277	0.141012	0.000873	
0.001266	0.140626	0.000872	
0.001249	0.139996	0.000872	
0.001222	0.138957	0.000871	
0.001178	0.137282	0.000870	
0.001114	0.134739	0.000867	
0.001026	0.131079	0.000864	
0.000915	0.126126	0.000860	
0.000788	0.119861	0.000854	
0.000659	0.112785	0.000847	
0.000541	0.105388	0.000840	
0.000448	0.098670	0.000832	
0.000380	0.093136	0.000826	
0.000333	0.088922	0.000821	
0.000301	0.085852	0.000818	
0.000279	0.083616	0.000815	
0.000265	0.082040	0.000813	
0.000255	0.080946	0.000812	
0.000248	0.080148	0.000811	
0.000243	0.079609	0.000810	
0.000240	0.079231	0.000809	
0.000238	0.078972	0.000809	
0.000236	0.078771	0.000809	
0.000235	0.078636	0.000809	
0.000234	0.078539	0.000809	
0.000234	0.078463	0.000808	
0.000233	0.078404	0.000808	
0.000233	0.078360	0.000808	
0.000233	0.078333	0.000808	
0.000232	0.078319	0.000808	
0.000232	0.078315	0.000808	
0.000232	0.078317	0.000808	
0.000233	0.078334	0.000808	
0.000233	0.078365	0.000808	
0.000233	0.078419	0.000808	
0.000234	0.078505	0.000809	
0.000235	0.078606	0.000809	
0.000236	0.078723	0.000809	
0.000237	0.078857	0.000809	
0.000238	0.079012	0.000809	
0.000240	0.079188	0.000809	
0.000241	0.079389	0.000810	
0.000243	0.079615	0.000810	
0.000246	0.079874	0.000810	
0.000248	0.080167	0.000811	
0.000251	0.080496	0.000811	
0.000254	0.080866	0.000812	
0.000258	0.081286	0.000812	
0.000262	0.081761	0.000813	
0.000267	0.082293	0.000813	
0.000273	0.082888	0.000814	
0.000279	0.083558	0.000815	
0.000286	0.084308	0.000816	
0.000294	0.085140	0.000817	
0.000303	0.086061	0.000818	
0.000313	0.087082	0.000819	
0.000325	0.088201	0.000821	
0.000338	0.089411	0.000822	
0.000352	0.090715	0.000824	
0.000368	0.092126	0.000825	
0.000385	0.093637	0.000827	
0.000404	0.095230	0.000829	
0.000425	0.096899	0.000831	
0.000447	0.098651	0.000832	
0.000472	0.100470	0.000834	
0.000497	0.102338	0.000836	
0.000524	0.104242	0.000838	
0.000553	0.106179	0.000840	
0.000583	0.108129	0.000842	
0.000614	0.110065	0.000844	
0.000645	0.111967	0.000846	
0.000677	0.113832	0.000848	
0.000709	0.115650	0.000850	
0.000741	0.117407	0.000852	
0.000773	0.119097	0.000853	
0.000804	0.120726	0.000855	
0.000835	0.122287	0.000856	
0.000866	0.123765	0.000858	
0.000895	0.125159	0.000859	
0.000923	0.126478	0.000860	
0.000950	0.127723	0.000861	
0.000976	0.128886	0.000862	
0.001001	0.129976	0.000863	
0.001024	0.130995	0.000864	
0.001046	0.131946	0.000865	
0.001067	0.132825	0.000866	
0.001087	0.133634	0.000866	
0.001105	0.134381	0.000867	
0.001122	0.135067	0.000868	
0.001138	0.135694	0.000868	
0.001152	0.136267	0.000869	
0.001165	0.136791	0.000869	
0.001178	0.137272	0.000869	
0.001189	0.137708	0.000870	
0.001199	0.138101	0.000870	
0.001208	0.138455	0.000871	
0.001217	0.138773	0.000871	
0.001224	0.139055	0.000871	
0.001231	0.139302	0.000871	
0.001237	0.139520	0.000871	
0.001242	0.139708	0.000872	
0.001246	0.139871	0.000872	
0.001250	0.140010	0.000872	
0.001253	0.140128	0.000872	
0.001256	0.140229	0.000872	
0.001258	0.140313	0.000872	
0.001260	0.140383	0.000872	
0.001261	0.140441	0.000872	
0.001262	0.140487	0.000872	
0.001263	0.140524	0.000872	
0.001264	0.140554	0.000872	
0.001265	0.140575	0.000872	
0.001265	0.140591	0.000872	
0.001266	0.140601	0.000872	
0.001266	0.140605	0.000872	
0.001266	0.140605	0.000872	
0.001266	0.140600	0.000872	
0.001265	0.140592	0.000872	
0.001265	0.140579	0.000872	
0.001265	0.140563	0.000872	
0.001264	0.140543	0.000872	
0.001263	0.140519	0.000872	
0.001263	0.140492	0.000872	
0.001262	0.140461	0.000872	
0.001261	0.140425	0.000872	
0.001260	0.140387	0.000872	
0.001259	0.140344	0.000872	
0.001257	0.140298	0.000872	
0.001256	0.140250	0.000872	
0.001255	0.140201	0.000872	
0.001253	0.140152	0.000872	
0.001252	0.140106	0.000872	
0.001251	0.140066	0.000872	
0.001250	0.140034	0.000872	
0.001250	0.140011	0.000872	
0.001249	0.140001	0.000872	
0.001250	0.140006	0.000872	
0.001250	0.140024	0.000872	
0.001251	0.140058	0.000872	
0.001252	0.140105	0.000872	
0.001254	0.140165	0.000872	
0.001256	0.140235	0.000872	
0.001258	0.140311	0.000872	
0.001260	0.140390	0.000872	
0.001262	0.140469	0.000872	
0.001264	0.140545	0.000872	
0.001266	0.140615	0.000872	
0.001268	0.140679	0.000872	
0.001269	0.140737	0.000872	
0.001271	0.140787	0.000872	
0.001272	0.140830	0.000873	
0.001273	0.140867	0.000873	
0.001274	0.140899	0.000873	
0.001274	0.140925	0.000873	
0.001275	0.140948	0.000873	
0.001276	0.140967	0.000873	
0.001276	0.140983	0.000873	
0.001276	0.140995	0.000873	
0.001277	0.141004	0.000873	
0.001277	0.141009	0.000873	
0.001277	0.141012	0.000873	
0.001277	0.141012	0.000873	
0.001277	0.141010	0.000873	
0.001277	0.141005	0.000873	
0.001276	0.140999	0.000873	
0.001276	0.140991	0.000873	
0.001276	0.140984	0.000873	
0.001276	0.140975	0.000873	
0.001275	0.140967	0.000873	
0.001275	0.140960	0.000873	
0.001275	0.140953	0.000873	
0.001275	0.140946	0.000873	
0.001275	0.140941	0.000873	
0.001275	0.140937	0.000873	
0.001275	0.140932	0.000873	
0.001274	0.140929	0.000873	
0.001274	0.140927	0.000873	
0.001274	0.140925	0.000873	
0.001274	0.140923	0.000873	
0.001274	0.140921	0.000873	
0.001274	0.140921	0.000873	
0.001274	0.140919	0.000873	
0.001274	0.140919	0.000873	
0.001274	0.140918	0.000873	
0.001274	0.140918	0.000873	
0.001274	0.140918	0.000873	
0.001274	0.140919	0.000873	
0.001274	0.140920	0.000873	
0.001274	0.140921	0.000873	
0.001274	0.140921	0.000873	
0.001274	0.140923	0.000873	
0.001274	0.140924	0.000873	
0.001274	0.140926	0.000873	
0.001274	0.140928	0.000873	
0.001275	0.140930	0.000873	
0.001275	0.140933	0.000873	
0.001275	0.140936	0.000873	
0.001275	0.140939	0.000873	
0.001275	0.140942	0.000873	
0.001275	0.140945	0.000873	
0.001275	0.140948	0.000873	
0.001275	0.140951	0.000873	
0.001275	0.140953	0.000873	
0.001275	0.140954	0.000873	
0.001275	0.140955	0.000873	
0.001275	0.140955	0.000873	
0.001275	0.140954	0.000873	
0.001275	0.140952	0.000873	
0.001275	0.140950	0.000873	
0.001275	0.140947	0.000873	
0.001275	0.140944	0.000873	
0.001275	0.140940	0.000873	
0.001275	0.140937	0.000873	
0.001275	0.140933	0.000873	
0.001275	0.140930	0.000873	
0.001274	0.140927	0.000873	
0.001274	0.140925	0.000873	
0.001274	0.140922	0.000873	
0.001274	0.140921	0.000873	
0.001274	0.140918	0.000873	
0.001274	0.140917	0.000873	
0.001274	0.140916	0.000873	
0.001274	0.140915	0.000873	
0.001274	0.140914	0.000873	
0.001274	0.140914	0.000873	
0.001274	0.140913	0.000873	
0.001274	0.140912	0.000873	
0.001274	0.140912	0.000873	
0.001274	0.140912	0.000873	
0.001274	0.140912	0.000873	
0.001274	0.140912	0.000873	
0.001274	0.140912	0.000873	
0.001274	0.140912	0.000873	
0.001274	0.140912	0.000873	
0.001274	0.140913	0.000873	
0.001274	0.140914	0.000873	
0.001274	0.140915	0.000873	
0.001274	0.140916	0.000873	
0.001274	0.140916	0.000873	
0.001274	0.140917	0.000873	
0.001274	0.140918	0.000873	
0.001274	0.140920	0.000873	
0.001274	0.140921	0.000873	
0.001274	0.140922	0.000873	
0.001274	0.140923	0.000873	
0.001274	0.140925	0.000873	
0.001274	0.140925	0.000873	
0.001274	0.140926	0.000873	
0.001274	0.140926	0.000873	
0.001274	0.140927	0.000873	
0.001274	0.140927	0.000873	
0.001274	0.140926	0.000873	
0.001274	0.140925	0.000873	
0.001274	0.140925	0.000873	
0.001274	0.140923	0.000873	
0.001274	0.140922	0.000873	
0.001274	0.140921	0.000873	
0.001274	0.140920	0.000873	
0.001274	0.140918	0.000873	
0.001274	0.140918	0.000873	
0.001274	0.140916	0.000873	
0.001274	0.140916	0.000873	
0.001274	0.140915	0.000873	
0.001274	0.140914	0.000873	
0.001274	0.140914	0.000873	
0.001274	0.140913	0.000873	
0.001274	0.140912	0.000873	
0.001274	0.140912	0.000873	
0.001274	0.140911	0.000873	
0.001274	0.140911	0.000873	
0.001274	0.140911	0.000873	
0.001274	0.140911	0.000873	
0.001274	0.140911	0.000873	
0.001274	0.140911	0.000873	
0.001274	0.140911	0.000873	
0.001274	0.140911	0.000873	
0.001274	0.140911	0.000873	
0.001274	0.140911	0.000873	
0.001274	0.140911	0.000873	
0.001274	0.140911	0.000873	
0.001274	0.140911	0.000873	
0.001274	0.140911	0.000873	
0.001274	0.140912	0.000873	
0.001274	0.140912	0.000873	
0.001274	0.140912	0.000873	
0.001274	0.140912	0.000873	
0.001274	0.140911	0.000873	
0.001274	0.140911	0.000873	
0.001274	0.140910	0.000873	
0.001274	0.140909	0.000873	
0.001274	0.140907	0.000873	
0.001274	0.140903	0.000873	
0.001274	0.140899	0.000873	
0.001273	0.140892	0.000873	
0.001273	0.140883	0.000873	
0.001273	0.140872	0.000873	
0.001273	0.140858	0.000873	
0.001272	0.140840	0.000873	
0.001272	0.140820	0.000873	
0.001271	0.140797	0.000872	
0.001270	0.140774	0.000872	
0.001270	0.140749	0.000872	
0.001269	0.140725	0.000872	
0.001268	0.140704	0.000872	
0.001268	0.140686	0.000872	
0.001268	0.140672	0.000872	
0.001267	0.140665	0.000872	
0.001267	0.140661	0.000872	
0.001267	0.140663	0.000872	
0.001267	0.140669	0.000872	
0.001268	0.140679	0.000872	
0.001268	0.140690	0.000872	
0.001268	0.140704	0.000872	
0.001269	0.140718	0.000872	
0.001269	0.140732	0.000872	
0.001269	0.140746	0.000872	
0.001270	0.140758	0.000872	
0.001270	0.140770	0.000872	
0.001270	0.140781	0.000872	
0.001271	0.140791	0.000872	
0.001271	0.140799	0.000872	
0.001271	0.140807	0.000872	
0.001271	0.140813	0.000872	
0.001271	0.140818	0.000873	
0.001272	0.140823	0.000873	
0.001272	0.140826	0.000873	
0.001272	0.140829	0.000873	
0.001272	0.140831	0.000873	
0.001272	0.140833	0.000873	
0.001272	0.140834	0.000873	
0.001272	0.140834	0.000873	
0.001272	0.140834	0.000873	
0.001272	0.140834	0.000873	
0.001272	0.140834	0.000873	
0.001272	0.140833	0.000873	
0.001272	0.140832	0.000873	
0.001272	0.140832	0.000873	
0.001272	0.140831	0.000873	
0.001272	0.140830	0.000873	
0.001272	0.140830	0.000873	
0.001272	0.140828	0.000873	
0.001272	0.140828	0.000873	
0.001272	0.140828	0.000873	
0.001272	0.140828	0.000873	
0.001272	0.140828	0.000873	
0.001272	0.140829	0.000873	
0.001272	0.140830	0.000873	
0.001272	0.140831	0.000873	
0.001272	0.140832	0.000873	
0.001272	0.140834	0.000873	
0.001272	0.140837	0.000873	
0.001272	0.140840	0.000873	
0.001272	0.140843	0.000873	
0.001272	0.140846	0.000873	
0.001272	0.140850	0.000873	
0.001272	0.140853	0.000873	
0.001273	0.140857	0.000873	
0.001273	0.140860	0.000873	
0.001273	0.140863	0.000873	
0.001273	0.140867	0.000873	
0.001273	0.140870	0.000873	
0.001273	0.140874	0.000873	
0.001273	0.140876	0.000873	
0.001273	0.140879	0.000873	
0.001273	0.140881	0.000873	
0.001273	0.140884	0.000873	
0.001273	0.140886	0.000873	
0.001273	0.140888	0.000873	
0.001273	0.140890	0.000873	
0.001273	0.140891	0.000873	
0.001273	0.140893	0.000873	
0.001273	0.140893	0.000873	
0.001274	0.140894	0.000873	
0.001274	0.140895	0.000873	
0.001274	0.140896	0.000873	
0.001274	0.140896	0.000873	
0.001274	0.140897	0.000873	
0.001274	0.140897	0.000873	
0.001274	0.140897	0.000873	
0.001274	0.140897	0.000873	
0.001274	0.140898	0.000873	
0.001274	0.140898	0.000873	
0.001274	0.140898	0.000873	
0.001274	0.140899	0.000873	
0.001274	0.140899	0.000873	
0.001274	0.140900	0.000873	
0.001274	0.140900	0.000873	
0.001274	0.140900	0.000873	
0.001274	0.140901	0.000873	
0.001274	0.140902	0.000873	
0.001274	0.140902	0.000873	
0.001274	0.140902	0.000873	
0.001274	0.140903	0.000873	
0.001274	0.140904	0.000873	
0.001274	0.140904	0.000873	
0.001274	0.140905	0.000873	
0.001274	0.140905	0.000873	
0.001274	0.140906	0.000873	
0.001274	0.140906	0.000873	
0.001274	0.140907	0.000873	
0.001274	0.140907	0.000873	
0.001274	0.140907	0.000873	
0.001274	0.140907	0.000873	
0.001274	0.140907	0.000873	
0.001274	0.140907	0.000873	
0.001274	0.140907	0.000873	
0.001274	0.140908	0.000873	
0.001274	0.140908	0.000873	
0.001274	0.140908	0.000873	
0.001274	0.140908	0.000873	
0.001274	0.140908	0.000873	
0.001274	0.140908	0.000873	
0.001274	0.140908	0.000873	
0.001274	0.140908	0.000873	
0.001274	0.140908	0.000873	
0.001274	0.140908	0.000873	
0.001274	0.140908	0.000873	
0.001274	0.140908	0.000873	
0.001274	0.140909	0.000873	
0.001274	0.140909	0.000873	
0.001274	0.140909	0.000873	
0.001274	0.140909	0.000873	
0.001274	0.140909	0.000873	
0.001274	0.140909	0.000873	
0.001274	0.140909	0.000873	
0.001274	0.140909	0.000873	
0.001274	0.140909	0.000873	
0.001274	0.140909	0.000873	
0.001274	0.140909	0.000873	
0.001274	0.140909	0.000873	
0.001274	0.140909	0.000873	
0.001274	0.140909	0.000873	
0.001274	0.140909	0.000873	
0.001274	0.140909	0.000873	
0.001274	0.140909	0.000873	
0.001274	0.140909	0.000873	
0.001274	0.140909	0.000873	
0.001274	0.140909	0.000873	
0.001274	0.140909	0.000873	
0.001274	0.140909	0.000873	
0.001274	0.140909	0.000873	
0.001274	0.140909	0.000873	
0.001274	0.140909	0.000873	
0.001274	0.140909	0.000873	
0.001274	0.140909	0.000873	
0.001274	0.140909	0.000873	
0.001274	0.140909	0.000873	
0.001274	0.140909	0.000873	
0.001274	0.140909	0.000873	
0.001274	0.140909	0.000873	
0.001274	0.140909	0.000873	
0.001274	0.140909	0.000873	
0.001274	0.140909	0.000873	
0.001274	0.140909	0.000873	
0.001274	0.140909	0.000873	
0.001274	0.140909	0.000873	
0.001274	0.140909	0.000873	
0.001274	0.140909	0.000873	
0.001274	0.140909	0.000873	
0.001274	0.140909	0.000873	
0.001274	0.140909	0.000873	
0.001274	0.140909	0.000873	
0.001274	0.140909	0.000873	
0.001274	0.140909	0.000873	
0.001274	0.140909	0.000873	
0.001274	0.140909	0.000873	
0.001274	0.140909	0.000873	
0.001274	0.140909	0.000873	
0.001274	0.140909	0.000873	
0.001274	0.140909	0.000873	
0.001274	0.140908	0.000873	
0.001274	0.140907	0.000873	
0.001274	0.140907	0.000873	
0.001274	0.140905	0.000873	
0.001274	0.140904	0.000873	
0.001274	0.140902	0.000873	
0.001274	0.140900	0.000873	
0.001274	0.140896	0.000873	
0.001273	0.140892	0.000873	
0.001273	0.140886	0.000873	
0.001273	0.140879	0.000873	
0.001273	0.140872	0.000873	
0.001273	0.140861	0.000873	
0.001272	0.140849	0.000873	
0.001272	0.140835	0.000873	
0.001271	0.140818	0.000873	
0.001271	0.140799	0.000872	
0.001270	0.140778	0.000872	
0.001270	0.140754	0.000872	
0.001269	0.140728	0.000872	
0.001268	0.140699	0.000872	
0.001267	0.140667	0.000872	
0.001266	0.140635	0.000872	
0.001266	0.140601	0.000872	
0.001265	0.140566	0.000872	
0.001264	0.140533	0.000872	
0.001263	0.140501	0.000872	
0.001262	0.140473	0.000872	
0.001261	0.140448	0.000872	
0.001261	0.140430	0.000872	
0.001261	0.140418	0.000872	
0.001260	0.140413	0.000872	
0.001261	0.140416	0.000872	
0.001261	0.140428	0.000872	
0.001261	0.140448	0.000872	
0.001262	0.140476	0.000872	
0.001263	0.140509	0.000872	
0.001264	0.140547	0.000872	
0.001265	0.140588	0.000872	
0.001266	0.140629	0.000872	
0.001267	0.140670	0.000872	
0.001269	0.140709	0.000872	
0.001269	0.140746	0.000872	
0.001270	0.140777	0.000872	
0.001271	0.140804	0.000872	
0.001272	0.140828	0.000873	
0.001272	0.140846	0.000873	
0.001273	0.140862	0.000873	
0.001273	0.140873	0.000873	
0.001273	0.140883	0.000873	
0.001273	0.140889	0.000873	
0.001274	0.140895	0.000873	
0.001274	0.140898	0.000873	
0.001274	0.140902	0.000873	
0.001274	0.140904	0.000873	
0.001274	0.140905	0.000873	
0.001274	0.140907	0.000873	
0.001274	0.140908	0.000873	
0.001274	0.140908	0.000873	
0.001274	0.140909	0.000873	
0.001274	0.140909	0.000873	
0.001274	0.140910	0.000873	
0.001274	0.140910	0.000873	
0.001274	0.140910	0.000873	
0.001274	0.140911	0.000873	
0.001274	0.140911	0.000873	
0.001274	0.140911	0.000873	
0.001274	0.140911	0.000873	
0.001274	0.140911	0.000873	
0.001274	0.140911	0.000873	
0.001274	0.140911	0.000873	
0.001274	0.140911	0.000873	
0.001274	0.140911	0.000873	
0.001274	0.140911	0.000873	
0.001274	0.140910	0.000873	
0.001274	0.140909	0.000873	
0.001274	0.140908	0.000873	
0.001274	0.140906	0.000873	
0.001274	0.140903	0.000873	
0.001274	0.140899	0.000873	
0.001273	0.140893	0.000873	
0.001273	0.140883	0.000873	
0.001273	0.140869	0.000873	
0.001272	0.140850	0.000873	
0.001272	0.140823	0.000873	
0.001271	0.140788	0.000872	
0.001269	0.140741	0.000872	
0.001268	0.140680	0.000872	
0.001266	0.140603	0.000872	
0.001263	0.140508	0.000872	
0.001260	0.140395	0.000872	
0.001256	0.140260	0.000872	
0.001252	0.140105	0.000872	
0.001248	0.139931	0.000872	
0.001242	0.139742	0.000872	
0.001237	0.139538	0.000871	
0.001231	0.139321	0.000871	
0.001225	0.139102	0.000871	
0.001220	0.138884	0.000871	
0.001214	0.138665	0.000871	
0.001208	0.138447	0.000871	
0.001203	0.138243	0.000870	
0.001198	0.138051	0.000870	
0.001193	0.137865	0.000870	
0.001188	0.137686	0.000870	
0.001184	0.137524	0.000870	
0.001180	0.137376	0.000870	
0.001177	0.137233	0.000869	
0.001173	0.137096	0.000869	
0.001170	0.136975	0.000869	
0.001167	0.136868	0.000869	
0.001165	0.136768	0.000869	
0.001163	0.136679	0.000869	
0.001161	0.136617	0.000869	
0.001160	0.136578	0.000869	
0.001159	0.136554	0.000869	
0.001159	0.136551	0.000869	
0.001160	0.136583	0.000869	
0.001162	0.136647	0.000869	
0.001164	0.136735	0.000869	
0.001167	0.136852	0.000869	
0.001171	0.137008	0.000869	
0.001176	0.137196	0.000869	
0.001181	0.137401	0.000870	
0.001187	0.137623	0.000870	
0.001193	0.137864	0.000870	
0.001199	0.138113	0.000870	
0.001206	0.138357	0.000870	
0.001212	0.138593	0.000871	
0.001218	0.138820	0.000871	
0.001224	0.139037	0.000871	
0.001229	0.139233	0.000871	
0.001234	0.139410	0.000871	
0.001238	0.139573	0.000871	
0.001242	0.139718	0.000872	
0.001245	0.139845	0.000872	
0.001248	0.139954	0.000872	
0.001251	0.140051	0.000872	
0.001253	0.140136	0.000872	
0.001255	0.140211	0.000872	
0.001257	0.140281	0.000872	
0.001259	0.140350	0.000872	
0.001261	0.140427	0.000872	
0.001263	0.140522	0.000872	
0.001267	0.140653	0.000872	
0.001272	0.140850	0.000873	
0.001281	0.141156	0.000873	
0.001294	0.141629	0.000873	
0.001314	0.142357	0.000874	
0.001344	0.143446	0.000875	
0.001389	0.145008	0.000876	
0.001452	0.147156	0.000878	
0.001539	0.149988	0.000880	
0.001652	0.153525	0.000883	
0.001792	0.157671	0.000886	
0.001958	0.162280	0.000890	
0.002147	0.167166	0.000893	
0.002350	0.172095	0.000897	
0.002558	0.176826	0.000900	
0.002763	0.181230	0.000904	
0.002962	0.185259	0.000906	
0.003150	0.188881	0.000909	
0.003324	0.192095	0.000911	
0.003485	0.194951	0.000913	
0.003635	0.197531	0.000915	
0.003776	0.199881	0.000916	
0.003909	0.202032	0.000918	
0.004036	0.204039	0.000919	
0.004160	0.205959	0.000920	
0.004281	0.207786	0.000922	
0.004398	0.209517	0.000923	
0.004511	0.211147	0.000924	
0.004619	0.212680	0.000925	
0.004720	0.214092	0.000926	
0.004812	0.215358	0.000926	
0.004894	0.216466	0.000927	
0.004966	0.217425	0.000928	
0.005027	0.218230	0.000928	
0.005077	0.218885	0.000929	
0.005117	0.219408	0.000929	
0.005148	0.219818	0.000929	
0.005173	0.220133	0.000929	
0.005191	0.220369	0.000930	
0.005205	0.220545	0.000930	
0.005215	0.220674	0.000930	
0.005222	0.220769	0.000930	
0.005228	0.220836	0.000930	
0.005231	0.220884	0.000930	
0.005234	0.220920	0.000930	
0.005236	0.220945	0.000930	
0.005237	0.220963	0.000930	
0.005238	0.220976	0.000930	
0.005239	0.220984	0.000930	
0.005239	0.220988	0.000930	
0.005240	0.220990	0.000930	
0.005240	0.220991	0.000930	
0.005239	0.220988	0.000930	
0.005239	0.220983	0.000930	
0.005238	0.220974	0.000930	
0.005237	0.220963	0.000930	
0.005236	0.220948	0.000930	
0.005235	0.220929	0.000930	
0.005233	0.220904	0.000930	
0.005231	0.220875	0.000930	
0.005228	0.220837	0.000930	
0.005224	0.220791	0.000930	
0.005220	0.220737	0.000930	
0.005215	0.220673	0.000930	
0.005209	0.220597	0.000930	
0.005202	0.220513	0.000930	
0.005195	0.220417	0.000930	
0.005186	0.220309	0.000930	
0.005177	0.220191	0.000930	
0.005167	0.220060	0.000929	
0.005156	0.219918	0.000929	
0.005144	0.219764	0.000929	
0.005132	0.219603	0.000929	
0.005119	0.219441	0.000929	
0.005107	0.219284	0.000929	
0.005096	0.219137	0.000929	
0.005087	0.219015	0.000929	
0.005080	0.218930	0.000929	
0.005076	0.218881	0.000929	
0.005076	0.218875	0.000929	
0.005079	0.218917	0.000929	
0.005086	0.219005	0.000929	
0.005095	0.219125	0.000929	
0.005106	0.219271	0.000929	
0.005119	0.219437	0.000929	
0.005132	0.219610	0.000929	
0.005145	0.219781	0.000929	
0.005158	0.219942	0.000929	
0.005170	0.220092	0.000929	
0.005180	0.220228	0.000930	
0.005189	0.220345	0.000930	
0.005197	0.220445	0.000930	
0.005204	0.220532	0.000930	
0.005209	0.220603	0.000930	
0.005214	0.220661	0.000930	
0.005217	0.220707	0.000930	
0.005220	0.220745	0.000930	
0.005223	0.220773	0.000930	
0.005224	0.220794	0.000930	
0.005225	0.220809	0.000930	
0.005226	0.220818	0.000930	
0.005226	0.220823	0.000930	
0.005226	0.220823	0.000930	
0.005226	0.220817	0.000930	
0.005225	0.220807	0.000930	
0.005224	0.220792	0.000930	
0.005222	0.220770	0.000930	
0.005220	0.220740	0.000930	
0.005217	0.220698	0.000930	
0.005213	0.220645	0.000930	
0.005207	0.220572	0.000930	
0.005199	0.220470	0.000930	
0.005188	0.220331	0.000930	
0.005173	0.220135	0.000929	
0.005151	0.219854	0.000929	
0.005119	0.219443	0.000929	
0.005073	0.218844	0.000929	
0.005006	0.217953	0.000928	
0.004905	0.216610	0.000927	
0.004756	0.214581	0.000926	
0.004539	0.211549	0.000924	
0.004234	0.207083	0.000921	
0.003827	0.200717	0.000917	
0.003331	0.192230	0.000911	
0.002803	0.182044	0.000904	
0.002316	0.171307	0.000896	
0.001931	0.161533	0.000889	
0.001663	0.153868	0.000883	
0.001495	0.148582	0.000879	
0.001396	0.145251	0.000876	
0.001340	0.143282	0.000875	
0.001309	0.142174	0.000874	
0.001292	0.141571	0.000873	
0.001283	0.141250	0.000873	
0.001279	0.141082	0.000873	
0.001276	0.140995	0.000873	
0.001275	0.140951	0.000873	
0.001274	0.140927	0.000873	
0.001274	0.140916	0.000873	
0.001274	0.140910	0.000873	
0.001274	0.140907	0.000873	
0.001274	0.140906	0.000873	
0.001274	0.140905	0.000873	
0.001274	0.140905	0.000873	
0.001274	0.140904	0.000873	
0.001274	0.140904	0.000873	
0.001274	0.140904	0.000873	
0.001274	0.140905	0.000873	
0.001274	0.140905	0.000873	
0.001274	0.140905	0.000873	
0.001274	0.140905	0.000873	
0.001274	0.140906	0.000873	
0.001274	0.140906	0.000873	
0.001274	0.140906	0.000873	
0.001274	0.140906	0.000873	
0.001274	0.140907	0.000873	
0.001274	0.140907	0.000873	
0.001274	0.140907	0.000873	
0.001274	0.140907	0.000873	
0.001274	0.140907	0.000873	
0.001274	0.140907	0.000873	
0.001274	0.140907	0.000873	
0.001274	0.140908	0.000873	
0.001274	0.140908	0.000873	
0.001274	0.140909	0.000873	
0.001274	0.140909	0.000873	
0.001274	0.140911	0.000873	
0.001274	0.140911	0.000873	
0.001274	0.140914	0.000873	
0.001274	0.140916	0.000873	
0.001274	0.140918	0.000873	
0.001274	0.140921	0.000873	
0.001274	0.140925	0.000873	
0.001275	0.140930	0.000873	
0.001275	0.140937	0.000873	
0.001275	0.140944	0.000873	
0.001275	0.140951	0.000873	
0.001275	0.140959	0.000873	
0.001275	0.140967	0.000873	
0.001276	0.140974	0.000873	
0.001276	0.140982	0.000873	
0.001276	0.140986	0.000873	
0.001276	0.140990	0.000873	
0.001276	0.140991	0.000873	
0.001276	0.140991	0.000873	
0.001276	0.140988	0.000873	
0.001276	0.140984	0.000873	
0.001276	0.140979	0.000873	
0.001276	0.140972	0.000873	
0.001275	0.140965	0.000873	
0.001275	0.140958	0.000873	
0.001275	0.140952	0.000873	
0.001275	0.140946	0.000873	
0.001275	0.140940	0.000873	
0.001275	0.140935	0.000873	
0.001274	0.140930	0.000873	
0.001274	0.140926	0.000873	
0.001274	0.140923	0.000873	
0.001274	0.140921	0.000873	
0.001274	0.140919	0.000873	
0.001274	0.140917	0.000873	
0.001274	0.140916	0.000873	
0.001274	0.140914	0.000873	
0.001274	0.140914	0.000873	
0.001274	0.140913	0.000873	
0.001274	0.140912	0.000873	
0.001274	0.140912	0.000873	
0.001274	0.140912	0.000873	
0.001274	0.140911	0.000873	
0.001274	0.140911	0.000873	
0.001274	0.140912	0.000873	
0.001274	0.140912	0.000873	
0.001274	0.140912	0.000873	
0.001274	0.140913	0.000873	
0.001274	0.140913	0.000873	
0.001274	0.140914	0.000873	
0.001274	0.140914	0.000873	
0.001274	0.140916	0.000873	
0.001274	0.140916	0.000873	
0.001274	0.140918	0.000873	
0.001274	0.140919	0.000873	
0.001274	0.140921	0.000873	
0.001274	0.140923	0.000873	
0.001274	0.140925	0.000873	
0.001274	0.140928	0.000873	
0.001275	0.140931	0.000873	
0.001275	0.140935	0.000873	
0.001275	0.140938	0.000873	
0.001275	0.140942	0.000873	
0.001275	0.140945	0.000873	
0.001275	0.140949	0.000873	
0.001275	0.140951	0.000873	
0.001275	0.140954	0.000873	
0.001275	0.140957	0.000873	
0.001275	0.140959	0.000873	
0.001275	0.140960	0.000873	
0.001275	0.140961	0.000873	
0.001275	0.140962	0.000873	
0.001275	0.140962	0.000873	
0.001275	0.140961	0.000873	
0.001275	0.140959	0.000873	
0.001275	0.140958	0.000873	
0.001275	0.140956	0.000873	
0.001275	0.140954	0.000873	
0.001275	0.140951	0.000873	
0.001275	0.140949	0.000873	
0.001275	0.140946	0.000873	
0.001275	0.140944	0.000873	
0.001275	0.140942	0.000873	
0.001275	0.140940	0.000873	
0.001275	0.140938	0.000873	
0.001275	0.140936	0.000873	
0.001275	0.140934	0.000873	
0.001275	0.140933	0.000873	
0.001275	0.140931	0.000873	
0.001274	0.140930	0.000873	
0.001274	0.140929	0.000873	
0.001274	0.140928	0.000873	
0.001274	0.140927	0.000873	
0.001274	0.140926	0.000873	
0.001274	0.140925	0.000873	
0.001274	0.140925	0.000873	
0.001274	0.140925	0.000873	
0.001274	0.140925	0.000873	
0.001274	0.140924	0.000873	
0.001274	0.140923	0.000873	
0.001274	0.140923	0.000873	
0.001274	0.140923	0.000873	
0.001274	0.140923	0.000873	
0.001274	0.140923	0.000873	
0.001274	0.140923	0.000873	
0.001274	0.140923	0.000873	
0.001274	0.140922	0.000873	
0.001274	0.140922	0.000873	
0.001274	0.140922	0.000873	
0.001274	0.140922	0.000873	
0.001274	0.140921	0.000873	
0.001274	0.140921	0.000873	
0.001274	0.140921	0.000873	
0.001274	0.140921	0.000873	
0.001274	0.140920	0.000873	
0.001274	0.140920	0.000873	
0.001274	0.140919	0.000873	
0.001274	0.140919	0.000873	
0.001274	0.140919	0.000873	
0.001274	0.140918	0.000873	
0.001274	0.140918	0.000873	
0.001274	0.140918	0.000873	
0.001274	0.140917	0.000873	
0.001274	0.140918	0.000873	
0.001274	0.140917	0.000873	
0.001274	0.140917	0.000873	
0.001274	0.140916	0.000873	
0.001274	0.140917	0.000873	
0.001274	0.140916	0.000873	
0.001274	0.140916	0.000873	
0.001274	0.140916	0.000873	
0.001274	0.140916	0.000873	
0.001274	0.140916	0.000873	
0.001274	0.140916	0.000873	
0.001274	0.140916	0.000873	
0.001274	0.140915	0.000873	
0.001274	0.140915	0.000873	
0.001274	0.140914	0.000873	
0.001274	0.140914	0.000873	
0.001274	0.140914	0.000873	
0.001274	0.140913	0.000873	
0.001274	0.140913	0.000873	
0.001274	0.140913	0.000873	
0.001274	0.140911	0.000873	
0.001274	0.140911	0.000873	
0.001274	0.140911	0.000873	
0.001274	0.140910	0.000873	
0.001274	0.140910	0.000873	
0.001274	0.140909	0.000873	
0.001274	0.140909	0.000873	
0.001274	0.140909	0.000873	
0.001274	0.140908	0.000873	
0.001274	0.140908	0.000873	
0.001274	0.140908	0.000873	
0.001274	0.140908	0.000873	
0.001274	0.140908	0.000873	
0.001274	0.140907	0.000873	
0.001274	0.140907	0.000873	
0.001274	0.140907	0.000873	
0.001274	0.140907	0.000873	
0.001274	0.140907	0.000873	
0.001274	0.140907	0.000873	
0.001274	0.140907	0.000873	
0.001274	0.140907	0.000873	
0.001274	0.140907	0.000873	
0.001274	0.140907	0.000873	
0.001274	0.140907	0.000873	
0.001274	0.140907	0.000873	
0.001274	0.140907	0.000873	
0.001274	0.140907	0.000873	
0.001274	0.140907	0.000873	
0.001274	0.140907	0.000873	
0.001274	0.140907	0.000873	
0.001274	0.140907	0.000873	
0.001274	0.140907	0.000873	
0.001274	0.140907	0.000873	
0.001274	0.140907	0.000873	
0.001274	0.140907	0.000873	
0.001274	0.140907	0.000873	
0.001274	0.140907	0.000873	
0.001274	0.140907	0.000873	
0.001274	0.140907	0.000873	
0.001274	0.140907	0.000873	
0.001274	0.140907	0.000873	
0.001274	0.140907	0.000873	
0.001274	0.140907	0.000873	
0.001274	0.140907	0.000873	
0.001274	0.140907	0.000873	
0.001274	0.140907	0.000873	
0.001274	0.140907	0.000873	
0.001274	0.140907	0.000873	
0.001274	0.140907	0.000873	
0.001274	0.140907	0.000873	
0.001274	0.140907	0.000873	
0.001274	0.140907	0.000873	
0.001274	0.140907	0.000873	
0.001274	0.140907	0.000873	
0.001274	0.140907	0.000873	
0.001274	0.140907	0.000873	
0.001274	0.140907	0.000873	
0.001274	0.140907	0.000873	
0.001274	0.140907	0.000873	
0.001274	0.140907	0.000873	
0.001274	0.140907	0.000873	
0.001274	0.140907	0.000873	
0.001274	0.140907	0.000873	
0.001274	0.140907	0.000873	
0.001274	0.140907	0.000873	
0.001274	0.140907	0.000873	
0.001274	0.140907	0.000873	
0.001274	0.140907	0.000873	
0.001274	0.140907	0.000873	
0.001274	0.140907	0.000873	
0.001274	0.140907	0.000873	
0.001274	0.140907	0.000873	
0.001274	0.140907	0.000873	
0.001274	0.140907	0.000873	
0.001274	0.140907	0.000873	
0.001274	0.140907	0.000873	
0.001274	0.140907	0.000873	
0.001274	0.140907	0.000873	
0.001274	0.140907	0.000873	
0.001274	0.140907	0.000873	
0.001274	0.140907	0.000873	
0.001274	0.140907	0.000873	
0.001274	0.140907	0.000873	
0.001274	0.140907	0.000873	
0.001274	0.140907	0.000873	
0.001274	0.140907	0.000873	
0.001274	0.140907	0.000873	
0.001274	0.140907	0.000873	
0.001274	0.140908	0.000873	
0.001274	0.140908	0.000873	
0.001274	0.140909	0.000873	
0.001274	0.140909	0.000873	
0.001274	0.140909	0.000873	
0.001274	0.140910	0.000873	
0.001274	0.140911	0.000873	
0.001274	0.140911	0.000873	
0.001274	0.140911	0.000873	
0.001274	0.140911	0.000873	
0.001274	0.140911	0.000873	
0.001274	0.140911	0.000873	
0.001274	0.140911	0.000873	
0.001274	0.140911	0.000873	
0.001274	0.140911	0.000873	
0.001274	0.140911	0.000873	
0.001274	0.140910	0.000873	
0.001274	0.140910	0.000873	
0.001274	0.140909	0.000873	
0.001274	0.140909	0.000873	
0.001274	0.140908	0.000873	
0.001274	0.140908	0.000873	
0.001274	0.140907	0.000873	
0.001274	0.140907	0.000873	
0.001274	0.140907	0.000873	
0.001274	0.140906	0.000873	
0.001274	0.140905	0.000873	
0.001274	0.140905	0.000873	
0.001274	0.140904	0.000873	
0.001274	0.140904	0.000873	
0.001274	0.140902	0.000873	
0.001274	0.140902	0.000873	
0.001274	0.140900	0.000873	
0.001274	0.140899	0.000873	
0.001274	0.140897	0.000873	
0.001274	0.140895	0.000873	
0.001273	0.140893	0.000873	
0.001273	0.140891	0.000873	
0.001273	0.140889	0.000873	
0.001273	0.140887	0.000873	
0.001273	0.140885	0.000873	
0.001273	0.140883	0.000873	
0.001273	0.140881	0.000873	
0.001273	0.140880	0.000873	
0.001273	0.140879	0.000873	
0.001273	0.140878	0.000873	
0.001273	0.140877	0.000873	
0.001273	0.140876	0.000873	
0.001273	0.140876	0.000873	
0.001273	0.140876	0.000873	
0.001273	0.140876	0.000873	
0.001273	0.140875	0.000873	
0.001273	0.140874	0.000873	
0.001273	0.140872	0.000873	
0.001273	0.140869	0.000873	
0.001273	0.140866	0.000873	
0.001273	0.140861	0.000873	
0.001272	0.140855	0.000873	
0.001272	0.140848	0.000873	
0.001272	0.140839	0.000873	
0.001272	0.140827	0.000873	
0.001271	0.140812	0.000872	
0.001271	0.140794	0.000872	
0.001270	0.140772	0.000872	
0.001269	0.140743	0.000872	
0.001268	0.140708	0.000872	
0.001267	0.140664	0.000872	
0.001266	0.140609	0.000872	
0.001264	0.140542	0.000872	
0.001262	0.140460	0.000872	
0.001259	0.140359	0.000872	
0.001256	0.140240	0.000872	
0.001252	0.140101	0.000872	
0.001248	0.139940	0.000872	
0.001243	0.139760	0.000872	
0.001238	0.139563	0.000871	
0.001232	0.139354	0.000871	
0.001226	0.139141	0.000871	
0.001221	0.138930	0.000871	
0.001216	0.138731	0.000871	
0.001211	0.138553	0.000871	
0.001207	0.138407	0.000870	
0.001204	0.138295	0.000870	
0.001202	0.138226	0.000870	
0.001202	0.138203	0.000870	
0.001202	0.138225	0.000870	
0.001204	0.138288	0.000870	
0.001207	0.138387	0.000870	
0.001210	0.138517	0.000871	
0.001214	0.138671	0.000871	
0.001219	0.138841	0.000871	
0.001223	0.139020	0.000871	
0.001228	0.139203	0.000871	
0.001233	0.139382	0.000871	
0.001237	0.139553	0.000871	
0.001242	0.139714	0.000872	
0.001246	0.139863	0.000872	
0.001249	0.139999	0.000872	
0.001253	0.140122	0.000872	
0.001256	0.140231	0.000872	
0.001258	0.140327	0.000872	
0.001260	0.140411	0.000872	
0.001262	0.140483	0.000872	
0.001264	0.140545	0.000872	
0.001266	0.140599	0.000872	
0.001267	0.140644	0.000872	
0.001268	0.140683	0.000872	
0.001269	0.140715	0.000872	
0.001269	0.140742	0.000872	
0.001270	0.140765	0.000872	
0.001271	0.140783	0.000872	
0.001271	0.140799	0.000872	
0.001271	0.140811	0.000872	
0.001272	0.140821	0.000873	
0.001272	0.140830	0.000873	
0.001272	0.140835	0.000873	
0.001272	0.140840	0.000873	
0.001272	0.140843	0.000873	
0.001272	0.140845	0.000873	
0.001272	0.140844	0.000873	
0.001272	0.140843	0.000873	
0.001272	0.140840	0.000873	
0.001272	0.140834	0.000873	
0.001272	0.140826	0.000873	
0.001271	0.140814	0.000872	
0.001271	0.140797	0.000872	
0.001270	0.140772	0.000872	
0.001269	0.140737	0.000872	
0.001268	0.140688	0.000872	
0.001266	0.140614	0.000872	
0.001263	0.140504	0.000872	
0.001258	0.140339	0.000872	
0.001252	0.140089	0.000872	
0.001242	0.139708	0.000872	
0.001226	0.139120	0.000871	
0.001202	0.138216	0.000870	
0.001167	0.136840	0.000869	
0.001115	0.134780	0.000867	
0.001043	0.131789	0.000865	
0.000948	0.127646	0.000861	
0.000835	0.122280	0.000856	
0.000714	0.115894	0.000850	
0.000597	0.109008	0.000843	
0.000497	0.102328	0.000836	
0.000420	0.096458	0.000830	
0.000363	0.091703	0.000825	
0.000324	0.088070	0.000820	
0.000297	0.085400	0.000817	
0.000278	0.083479	0.000815	
0.000265	0.082106	0.000813	
0.000257	0.081124	0.000812	
0.000250	0.080420	0.000811	
0.000246	0.079913	0.000810	
0.000243	0.079544	0.000810	
0.000240	0.079274	0.000810	
0.000239	0.079077	0.000809	
0.000238	0.078934	0.000809	
0.000237	0.078830	0.000809	
0.000236	0.078758	0.000809	
0.000236	0.078708	0.000809	
0.000235	0.078677	0.000809	
0.000235	0.078660	0.000809	
0.000235	0.078655	0.000809	
0.000235	0.078657	0.000809	
0.000235	0.078665	0.000809	
0.000235	0.078676	0.000809	
0.000236	0.078687	0.000809	
0.000236	0.078698	0.000809	
0.000236	0.078705	0.000809	
0.000236	0.078706	0.000809	
0.000235	0.078676	0.000809	
0.000230	0.078039	0.000808	
0.000150	0.066889	0.000792	
0.000072	0.051311	0.000767	
0.000072	0.051285	0.000767	
0.000072	0.051285	0.000767	
0.000072	0.051285	0.000767	
0.000072	0.051285	0.000767	
0.000072	0.051285	0.000767	
0.000072	0.051285	0.000767	
0.000072	0.051285	0.000767	
0.000072	0.051285	0.000767	
0.000072	0.051285	0.000767	
0.000072	0.051285	0.000767	
0.000072	0.051285	0.000767	
0.000072	0.051285	0.000767	
0.000072	0.051285	0.000767	
0.000072	0.051285	0.000767	
0.000072	0.051285	0.000767	
0.000072	0.051285	0.000767	
0.000072	0.051285	0.000767	
0.000072	0.051285	0.000767	
0.000072	0.051285	0.000767	
0.000072	0.051285	0.000767	
0.000072	0.051285	0.000767	
0.000072	0.051285	0.000767	
0.000072	0.051285	0.000767	
0.000072	0.051285	0.000767	
0.000072	0.051285	0.000767	
0.000072	0.051285	0.000767	
0.000072	0.051285	0.000767	
0.000072	0.051285	0.000767	
0.000072	0.051285	0.000767	
0.000072	0.051285	0.000767	
0.000072	0.051285	0.000767	
0.000072	0.051285	0.000767	
0.000072	0.051285	0.000767	
0.000072	0.051285	0.000767	
0.000072	0.051285	0.000767	
0.000072	0.051285	0.000767	
0.000072	0.051285	0.000767	
0.000072	0.051285	0.000767	
0.000072	0.051285	0.000767	
0.000072	0.051285	0.000767	
0.000072	0.051285	0.000767	
0.000072	0.051285	0.000767	
0.000072	0.051285	0.000767	
0.000072	0.051285	0.000767	
0.000072	0.051285	0.000767	
0.000072	0.051285	0.000767	
0.000072	0.051285	0.000767	
0.000072	0.051285	0.000767	
0.000072	0.051285	0.000767	
0.000072	0.051285	0.000767	
0.000072	0.051285	0.000767	
0.000072	0.051285	0.000767	
0.000072	0.051285	0.000767	
0.000072	0.051285	0.000767	
0.000072	0.051285	0.000767	
0.000072	0.051285	0.000767	
0.000072	0.051285	0.000767	
0.000072	0.051285	0.000767	
0.000072	0.051285	0.000767	
0.000072	0.051285	0.000767	
0.000072	0.051285	0.000767	
0.000072	0.051285	0.000767	
0.000072	0.051285	0.000767	
0.000072	0.051285	0.000767	
0.000072	0.051285	0.000767	
0.000072	0.051285	0.000767	
0.000072	0.051285	0.000767	
0.000072	0.051285	0.000767	
0.000072	0.051285	0.000767	
0.000072	0.051285	0.000767	
0.000072	0.051285	0.000767	
0.000072	0.051285	0.000767	
0.000072	0.051285	0.000767	
0.000072	0.051285	0.000767	
0.000072	0.051285	0.000767	
0.000072	0.051285	0.000767	
0.000072	0.051285	0.000767	
0.000072	0.051285	0.000767	
0.000072	0.051285	0.000767	
0.000072	0.051285	0.000767	
0.000072	0.051285	0.000767	
0.000072	0.051285	0.000767	
0.000072	0.051285	0.000767	
0.000072	0.051285	0.000767	
0.000072	0.051285	0.000767	
0.000072	0.051285	0.000767	
0.000072	0.051285	0.000767	
0.000072	0.051285	0.000767	
0.000072	0.051285	0.000767	
0.000072	0.051285	0.000767	
0.000072	0.051285	0.000767	
0.000072	0.051285	0.000767	
0.000072	0.051285	0.000767	
0.000072	0.051285	0.000767	
0.000072	0.051285	0.000767	
0.000072	0.051285	0.000767	
0.000072	0.051285	0.000767	
0.000072	0.051285	0.000767	
0.000072	0.051285	0.000767	
0.000072	0.051285	0.000767	
0.000072	0.051285	0.000767	
0.000072	0.051285	0.000767	
0.000072	0.051285	0.000767	
0.000072	0.051285	0.000767	
0.000072	0.051285	0.000767	
0.000072	0.051285	0.000767	
0.000072	0.051285	0.000767	
0.000072	0.051285	0.000767	
0.000072	0.051285	0.000767	
0.000072	0.051285	0.000767	
0.000072	0.051285	0.000767	
0.000072	0.051285	0.000767	
0.000072	0.051285	0.000767	
0.000072	0.051285	0.000767	
0.000072	0.051285	0.000767	
0.000400	0.094838	0.000828	
0.001260	0.140399	0.000872	
0.001273	0.140893	0.000873	
0.001274	0.140898	0.000873	
0.001274	0.140900	0.000873	
0.001274	0.140903	0.000873	
0.001274	0.140910	0.000873	
0.001274	0.140924	0.000873	
0.001275	0.140959	0.000873	
0.001277	0.141032	0.000873	
0.001282	0.141194	0.000873	
0.001291	0.141534	0.000873	
0.001310	0.142232	0.000874	
0.001349	0.143616	0.000875	
0.001425	0.146240	0.000877	
0.001568	0.150926	0.000881	
0.001826	0.158624	0.000887	
0.002256	0.169855	0.000895	
0.002893	0.183872	0.000905	
0.003693	0.198501	0.000915	
0.004523	0.211321	0.000924	
0.005246	0.221076	0.000930	
0.005795	0.227797	0.000934	
0.006173	0.232156	0.000937	
0.006420	0.234884	0.000939	
0.006576	0.236562	0.000940	
0.006671	0.237576	0.000940	
0.006728	0.238175	0.000941	
0.006760	0.238512	0.000941	
0.006776	0.238674	0.000941	
0.006780	0.238715	0.000941	
0.006775	0.238661	0.000941	
0.006762	0.238527	0.000941	
0.006742	0.238313	0.000941	
0.006713	0.238018	0.000941	
0.006677	0.237638	0.000940	
0.006632	0.237161	0.000940	
0.006578	0.236584	0.000940	
0.006514	0.235901	0.000939	
0.006441	0.235110	0.000939	
0.006359	0.234211	0.000938	
0.006268	0.233208	0.000938	
0.006169	0.232106	0.000937	
0.006064	0.230916	0.000936	
0.005953	0.229651	0.000935	
0.005839	0.228321	0.000935	
0.005722	0.226938	0.000934	
0.005603	0.225512	0.000933	
0.005484	0.224056	0.000932	
0.005365	0.222582	0.000931	
0.005248	0.221097	0.000930	
0.005133	0.219620	0.000929	
0.005022	0.218166	0.000928	
0.004916	0.216756	0.000927	
0.004816	0.215413	0.000926	
0.004726	0.214176	0.000926	
0.004647	0.213076	0.000925	
0.004581	0.212150	0.000924	
0.004532	0.211445	0.000924	
0.004502	0.211015	0.000924	
0.004494	0.210899	0.000924	
0.004510	0.211137	0.000924	
0.004555	0.211768	0.000924	
0.004628	0.212809	0.000925	
0.004732	0.214250	0.000926	
0.004864	0.216064	0.000927	
0.005025	0.218202	0.000928	
0.005208	0.220586	0.000930	
0.005407	0.223107	0.000931	
0.005614	0.225637	0.000933	
0.005817	0.228059	0.000934	
0.006006	0.230258	0.000936	
0.006173	0.232148	0.000937	
0.006310	0.233674	0.000938	
0.006416	0.234839	0.000939	
0.006499	0.235742	0.000939	
0.379136	0.640221	0.001152	
0.382697	0.641564	0.001152	
0.382698	0.641564	0.001152	
0.382698	0.641564	0.001152	
0.382698	0.641564	0.001152	
0.382698	0.641564	0.001152	
0.382698	0.641564	0.001152	
0.382698	0.641564	0.001152	
0.382699	0.641564	0.001152	
0.382699	0.641564	0.001152	
0.382699	0.641564	0.001152	
0.382699	0.641564	0.001152	
0.382699	0.641564	0.001152	
0.382699	0.641564	0.001152	
0.382699	0.641564	0.001152	
0.382699	0.641564	0.001152	
0.382699	0.641564	0.001152	
0.382699	0.641564	0.001152	
0.382699	0.641564	0.001152	
0.382699	0.641564	0.001152	
0.382699	0.641564	0.001152	
0.382699	0.641564	0.001152	
0.382699	0.641564	0.001152	
0.382699	0.641564	0.001152	
0.382699	0.641564	0.001152	
0.382699	0.641564	0.001152	
0.382699	0.641564	0.001152	
0.382699	0.641564	0.001152	
0.382699	0.641564	0.001152	
0.382699	0.641564	0.001152	
0.382699	0.641564	0.001152	
0.382699	0.641564	0.001152	
0.382699	0.641564	0.001152	
0.382699	0.641564	0.001152	
0.382699	0.641564	0.001152	
0.382699	0.641564	0.001152	
0.382699	0.641564	0.001152	
0.382699	0.641564	0.001152	
0.382699	0.641564	0.001152	
0.382699	0.641564	0.001152	
0.382699	0.641564	0.001152	
0.382699	0.641564	0.001152	
0.382699	0.641564	0.001152	
0.382699	0.641564	0.001152	
0.382699	0.641564	0.001152	
0.382699	0.641564	0.001152	
0.382699	0.641564	0.001152	
0.382699	0.641564	0.001152	
0.382699	0.641564	0.001152	
0.382699	0.641564	0.001152	
0.382699	0.641564	0.001152	
0.382699	0.641564	0.001152	
0.382699	0.641564	0.001152	
0.382699	0.641564	0.001152	
0.382699	0.641564	0.001152	
0.382699	0.641564	0.001152	
0.382699	0.641564	0.001152	
0.382699	0.641564	0.001152	
0.382699	0.641564	0.001152	
0.382700	0.641564	0.001152	
0.382700	0.641565	0.001152	
0.382700	0.641565	0.001152	
0.382700	0.641565	0.001152	
0.382700	0.641565	0.001152	
0.382700	0.641565	0.001152	
0.382700	0.641565	0.001152	
0.382700	0.641565	0.001152	
0.382700	0.641565	0.001152	
0.382700	0.641565	0.001152	
0.382700	0.641565	0.001152	
0.382700	0.641565	0.001152	
0.382700	0.641565	0.001152	
0.382700	0.641565	0.001152	
0.382700	0.641565	0.001152	
0.382700	0.641565	0.001152	
0.382700	0.641565	0.001152	
0.382700	0.641565	0.001152	
0.382700	0.641565	0.001152	
0.382700	0.641565	0.001152	
0.382700	0.641565	0.001152	
0.382696	0.641563	0.001152	
0.238819	0.579093	0.001118	
0.215079	0.566292	0.001111	
0.214997	0.566246	0.001111	
0.214998	0.566246	0.001111	
0.214999	0.566247	0.001111	
0.214999	0.566247	0.001111	
0.215000	0.566247	0.001111	
0.214999	0.566247	0.001111	
0.214999	0.566247	0.001111	
0.214998	0.566246	0.001111	
0.214994	0.566244	0.001111	
0.214987	0.566240	0.001111	
0.214977	0.566234	0.001111	
0.214957	0.566223	0.001111	
0.214923	0.566204	0.001111	
0.214861	0.566169	0.001111	
0.214758	0.566111	0.001111	
0.214584	0.566014	0.001111	
0.214299	0.565853	0.001111	
0.213835	0.565591	0.001110	
0.213104	0.565178	0.001110	
0.211984	0.564542	0.001110	
0.210315	0.563590	0.001109	
0.207916	0.562211	0.001109	
0.204597	0.560283	0.001108	
0.200208	0.557694	0.001106	
0.194672	0.554362	0.001105	
0.188042	0.550269	0.001102	
0.180534	0.545488	0.001100	
0.172492	0.540184	0.001097	
0.164321	0.534579	0.001094	
0.156416	0.528931	0.001092	
0.149089	0.523477	0.001089	
0.142526	0.518396	0.001086	
0.136811	0.513807	0.001084	
0.131940	0.509764	0.001082	
0.127854	0.506273	0.001080	
0.124469	0.503308	0.001079	
0.121692	0.500823	0.001077	
0.119433	0.498765	0.001076	
0.117609	0.497079	0.001075	
0.116144	0.495708	0.001075	
0.114976	0.494604	0.001074	
0.114049	0.493722	0.001074	
0.113319	0.493022	0.001073	
0.112745	0.492469	0.001073	
0.112298	0.492037	0.001073	
0.111952	0.491702	0.001073	
0.111687	0.491444	0.001073	
0.111486	0.491248	0.001073	
0.111339	0.491105	0.001072	
0.111235	0.491003	0.001072	
0.111167	0.490937	0.001072	
0.111133	0.490903	0.001072	
0.111129	0.490899	0.001072	
0.111158	0.490928	0.001072	
0.111220	0.490989	0.001072	
0.111322	0.491089	0.001072	
0.111471	0.491233	0.001073	
0.111678	0.491435	0.001073	
0.111955	0.491705	0.001073	
0.112320	0.492058	0.001073	
0.112787	0.492509	0.001073	
0.113367	0.493068	0.001073	
0.114060	0.493733	0.001074	
0.114843	0.494479	0.001074	
0.115665	0.495257	0.001075	
0.116433	0.495980	0.001075	
0.117028	0.496537	0.001075	
0.117311	0.496801	0.001075	
0.117170	0.496669	0.001075	
0.116557	0.496096	0.001075	
0.115532	0.495131	0.001074	
0.114259	0.493922	0.001074	
0.112967	0.492684	0.001073	
0.111868	0.491619	0.001073	
0.111076	0.490847	0.001072	
0.110591	0.490372	0.001072	
0.110343	0.490129	0.001072	
0.110233	0.490021	0.001072	
0.110197	0.489985	0.001072	
0.110187	0.489976	0.001072	
0.110188	0.489977	0.001072	
0.110193	0.489981	0.001072	
0.110198	0.489987	0.001072	
0.110202	0.489990	0.001072	
0.110207	0.489996	0.001072	
0.110211	0.489999	0.001072	
0.110214	0.490002	0.001072	
0.110217	0.490005	0.001072	
0.110218	0.490006	0.001072	
0.110218	0.490006	0.001072	
0.110218	0.490006	0.001072	
0.110216	0.490004	0.001072	
0.110214	0.490002	0.001072	
0.110212	0.490000	0.001072	
0.110209	0.489997	0.001072	
0.110207	0.489996	0.001072	
0.110205	0.489993	0.001072	
0.110203	0.489991	0.001072	
0.110202	0.489990	0.001072	
0.110203	0.489991	0.001072	
0.110204	0.489992	0.001072	
0.110207	0.489996	0.001072	
0.110216	0.490004	0.001072	
0.110234	0.490022	0.001072	
0.110265	0.490052	0.001072	
0.110323	0.490109	0.001072	
0.110425	0.490209	0.001072	
0.110563	0.490346	0.001072	
0.110293	0.490080	0.001072	
0.102915	0.482601	0.001068	
0.040351	0.387607	0.001021	
0.007028	0.241268	0.000942	
0.005907	0.229115	0.000935	
0.006189	0.232332	0.000937	
0.006627	0.237104	0.000940	
0.007158	0.242575	0.000943	
0.007744	0.248247	0.000947	
0.008339	0.253659	0.000950	
0.008899	0.258486	0.000953	
0.009402	0.262621	0.000955	
0.009848	0.266132	0.000957	
0.010248	0.269183	0.000959	
0.010632	0.272015	0.000960	
0.011030	0.274864	0.000962	
0.011471	0.277932	0.000964	
0.011980	0.281347	0.000966	
0.012588	0.285276	0.000968	
0.013501	0.290901	0.000971	
0.015941	0.304515	0.000978	
0.024112	0.340115	0.000997	
0.040480	0.387911	0.001021	
0.054537	0.416965	0.001036	
0.061743	0.429389	0.001042	
0.065229	0.434949	0.001045	
0.067158	0.437914	0.001046	
0.068334	0.439685	0.001047	
0.068999	0.440676	0.001047	
0.069165	0.440922	0.001048	
0.068699	0.440229	0.001047	
0.067280	0.438098	0.001046	
0.064278	0.433459	0.001044	
0.058676	0.424265	0.001039	
0.049531	0.407459	0.001031	
0.037805	0.381406	0.001018	
0.027139	0.350716	0.001002	
0.020115	0.324234	0.000989	
0.016173	0.305722	0.000979	
0.013880	0.293142	0.000972	
0.012328	0.283617	0.000967	
0.011113	0.275448	0.000962	
0.010082	0.267927	0.000958	
0.009189	0.260892	0.000954	
0.008426	0.254428	0.000950	
0.007789	0.248665	0.000947	
0.007272	0.243702	0.000944	
0.006862	0.239571	0.000941	
0.006548	0.236261	0.000939	
0.006316	0.233742	0.000938	
0.006160	0.231999	0.000937	
0.006079	0.231093	0.000936	
0.006090	0.231211	0.000936	
0.006226	0.232747	0.000937	
0.006554	0.236332	0.000939	
0.007168	0.242670	0.000943	
0.008156	0.252026	0.000949	
0.009520	0.263560	0.000956	
0.011079	0.275213	0.000962	
0.012484	0.284621	0.000967	
0.013365	0.290081	0.000970	
0.013453	0.290615	0.000971	
0.012638	0.285593	0.000968	
0.011028	0.274849	0.000962	
0.009063	0.259854	0.000953	
0.007391	0.244871	0.000945	
0.006394	0.234595	0.000938	
0.005991	0.230083	0.000936	
0.005931	0.229389	0.000935	
0.006033	0.230562	0.000936	
0.006223	0.232710	0.000937	
0.006489	0.235627	0.000939	
0.006841	0.239351	0.000941	
0.007300	0.243975	0.000944	
0.007883	0.249542	0.000947	
0.008606	0.255995	0.000951	
0.009468	0.263146	0.000955	
0.010453	0.270700	0.000960	
0.011524	0.278288	0.000964	
0.012628	0.285533	0.000968	
0.013709	0.292136	0.000972	
0.014713	0.297898	0.000975	
0.015605	0.302749	0.000977	
0.016365	0.306705	0.000979	
0.016988	0.309837	0.000981	
0.017478	0.312231	0.000982	
0.017843	0.313978	0.000983	
0.018091	0.315148	0.000984	
0.018232	0.315807	0.000984	
0.018269	0.315982	0.000984	
0.018206	0.315689	0.000984	
0.018040	0.314911	0.000984	
0.017767	0.313617	0.000983	
0.017379	0.311751	0.000982	
0.016868	0.309238	0.000981	
0.016226	0.305994	0.000979	
0.015456	0.301956	0.000977	
0.014567	0.297081	0.000974	
0.013581	0.291376	0.000971	
0.012538	0.284960	0.000968	
0.011485	0.278026	0.000964	
0.010476	0.270870	0.000960	
0.009554	0.263832	0.000956	
0.008749	0.257217	0.000952	
0.008071	0.251262	0.000948	
0.007520	0.246113	0.000945	
0.007080	0.241795	0.000943	
0.006738	0.238272	0.000941	
0.006473	0.235455	0.000939	
0.006271	0.233241	0.000938	
0.006118	0.231526	0.000937	
0.006003	0.230218	0.000936	
0.005918	0.229238	0.000935	
0.005857	0.228529	0.000935	
0.005815	0.228043	0.000934	
0.005790	0.227742	0.000934	
0.005779	0.227610	0.000934	
0.005780	0.227628	0.000934	
0.005794	0.227794	0.000934	
0.005821	0.228107	0.000934	
0.005861	0.228576	0.000935	
0.005915	0.229209	0.000935	
0.005986	0.230025	0.000936	
0.006074	0.231036	0.000936	
0.006182	0.232252	0.000937	
0.006311	0.233689	0.000938	
0.006463	0.235346	0.000939	
0.006637	0.237216	0.000940	
0.006834	0.239275	0.000941	
0.007050	0.241484	0.000943	
0.007281	0.243791	0.000944	
0.007521	0.246123	0.000945	
0.007760	0.248397	0.000947	
0.007991	0.250528	0.000948	
0.008201	0.252436	0.000949	
0.008384	0.254057	0.000950	
0.008529	0.255325	0.000951	
0.008628	0.256185	0.000951	
0.008679	0.256620	0.000952	
0.008679	0.256620	0.000952	
0.008628	0.256181	0.000951	
0.008528	0.255321	0.000951	
0.008386	0.254077	0.000950	
0.008208	0.252493	0.000949	
0.008001	0.250621	0.000948	
0.007776	0.248541	0.000947	
0.007542	0.246327	0.000945	
0.007307	0.244050	0.000944	
0.007079	0.241785	0.000943	
0.006864	0.239585	0.000941	
0.006664	0.237499	0.000940	
0.006483	0.235563	0.000939	
0.006321	0.233797	0.000938	
0.006179	0.232213	0.000937	
0.006055	0.230811	0.000936	
0.005948	0.229586	0.000935	
0.005856	0.228522	0.000935	
0.005779	0.227607	0.000934	
0.005713	0.226825	0.000934	
0.005657	0.226158	0.000933	
0.005610	0.225590	0.000933	
0.005570	0.225110	0.000933	
0.005537	0.224701	0.000932	
0.005508	0.224354	0.000932	
0.005484	0.224058	0.000932	
0.005464	0.223806	0.000932	
0.005446	0.223590	0.000932	
0.005431	0.223405	0.000932	
0.005419	0.223245	0.000931	
0.005408	0.223108	0.000931	
0.005398	0.222986	0.000931	
0.005389	0.222881	0.000931	
0.005382	0.222788	0.000931	
0.005375	0.222705	0.000931	
0.005369	0.222629	0.000931	
0.005364	0.222559	0.000931	
0.005358	0.222494	0.000931	
0.005354	0.222433	0.000931	
0.005349	0.222375	0.000931	
0.005345	0.222319	0.000931	
0.005340	0.222264	0.000931	
0.005336	0.222210	0.000931	
0.005332	0.222155	0.000931	
0.005327	0.222101	0.000931	
0.005323	0.222047	0.000931	
0.005319	0.221993	0.000931	
0.005314	0.221939	0.000931	
0.005310	0.221885	0.000931	
0.005306	0.221831	0.000931	
0.005302	0.221778	0.000931	
0.005297	0.221725	0.000930	
0.005293	0.221674	0.000930	
0.005289	0.221624	0.000930	
0.005286	0.221576	0.000930	
0.005282	0.221529	0.000930	
0.005278	0.221485	0.000930	
0.005275	0.221444	0.000930	
0.005272	0.221405	0.000930	
0.005269	0.221368	0.000930	
0.005267	0.221335	0.000930	
0.005264	0.221304	0.000930	
0.005262	0.221275	0.000930	
0.005260	0.221250	0.000930	
0.005258	0.221227	0.000930	
0.005257	0.221207	0.000930	
0.005255	0.221189	0.000930	
0.005254	0.221172	0.000930	
0.005253	0.221158	0.000930	
0.005252	0.221146	0.000930	
0.005251	0.221134	0.000930	
0.005250	0.221125	0.000930	
0.005249	0.221116	0.000930	
0.005249	0.221109	0.000930	
0.005248	0.221103	0.000930	
0.005248	0.221098	0.000930	
0.005248	0.221093	0.000930	
0.005247	0.221088	0.000930	
0.005247	0.221085	0.000930	
0.005247	0.221082	0.000930	
0.005247	0.221079	0.000930	
0.005246	0.221077	0.000930	
0.005246	0.221075	0.000930	
0.005246	0.221074	0.000930	
0.005246	0.221072	0.000930	
0.005246	0.221069	0.000930	
0.005246	0.221068	0.000930	
0.005245	0.221063	0.000930	
0.005244	0.221049	0.000930	
0.005241	0.221009	0.000930	
0.005231	0.220883	0.000930	
0.005199	0.220467	0.000930	
0.005093	0.219096	0.000929	
0.004765	0.214705	0.000926	
0.003934	0.202441	0.000918	
0.002667	0.179189	0.000902	
0.001763	0.156819	0.000885	
0.001415	0.145894	0.000877	
0.001312	0.142290	0.000874	
0.001284	0.141273	0.000873	
0.001276	0.141003	0.000873	
0.001275	0.140933	0.000873	
0.001274	0.140916	0.000873	
0.001274	0.140911	0.000873	
0.001274	0.140910	0.000873	
0.001274	0.140910	0.000873	
0.001274	0.140909	0.000873	
0.001274	0.140909	0.000873	
0.001274	0.140909	0.000873	
0.001274	0.140909	0.000873	
0.001274	0.140909	0.000873	
0.001274	0.140908	0.000873	
0.001274	0.140907	0.000873	
0.001274	0.140906	0.000873	
0.001274	0.140905	0.000873	
0.001274	0.140903	0.000873	
0.001274	0.140901	0.000873	
0.001274	0.140897	0.000873	
0.001273	0.140893	0.000873	
0.001273	0.140887	0.000873	
0.001273	0.140879	0.000873	
0.001273	0.140867	0.000873	
0.001272	0.140850	0.000873	
0.001272	0.140827	0.000873	
0.001271	0.140795	0.000872	
0.001270	0.140749	0.000872	
0.001268	0.140685	0.000872	
0.001265	0.140596	0.000872	
0.001262	0.140470	0.000872	
0.001257	0.140296	0.000872	
0.001251	0.140052	0.000872	
0.001242	0.139717	0.000872	
0.001230	0.139259	0.000871	
0.001213	0.138636	0.000871	
0.001191	0.137804	0.000870	
0.001163	0.136702	0.000869	
0.001127	0.135269	0.000868	
0.001082	0.133438	0.000866	
0.001028	0.131148	0.000864	
0.000964	0.128352	0.000862	
0.000892	0.125036	0.000859	
0.000814	0.121221	0.000855	
0.000733	0.116985	0.000851	
0.000653	0.112454	0.000847	
0.000578	0.107796	0.000842	
0.000509	0.103197	0.000837	
0.000450	0.098831	0.000833	
0.000400	0.094840	0.000828	
0.000359	0.091317	0.000824	
0.000326	0.088307	0.000821	
0.000301	0.085807	0.000818	
0.000281	0.083779	0.000815	
0.000266	0.082170	0.000813	
0.000255	0.080922	0.000812	
0.000246	0.079971	0.000810	
0.000240	0.079258	0.000809	
0.000236	0.078732	0.000809	
0.000233	0.078353	0.000808	
0.000230	0.078082	0.000808	
0.000229	0.077893	0.000808	
0.000228	0.077763	0.000808	
0.000227	0.077674	0.000807	
0.000227	0.077615	0.000807	
0.000226	0.077576	0.000807	
0.000226	0.077551	0.000807	
0.000226	0.077534	0.000807	
0.000226	0.077524	0.000807	
0.000226	0.077517	0.000807	
0.000226	0.077513	0.000807	
0.000226	0.077510	0.000807	
0.000226	0.077508	0.000807	
0.000226	0.077507	0.000807	
0.000226	0.077506	0.000807	
0.000226	0.077506	0.000807	
0.000226	0.077505	0.000807	
0.000226	0.077505	0.000807	
0.000226	0.077505	0.000807	
0.000226	0.077505	0.000807	
0.000226	0.077505	0.000807	
0.000226	0.077505	0.000807	
0.000226	0.077505	0.000807	
0.000226	0.077489	0.000807	
0.000179	0.071336	0.000799	
0.000072	0.051285	0.000767	
0.000072	0.051285	0.000767	
0.000072	0.051285	0.000767	
0.000072	0.051285	0.000767	
0.000072	0.051285	0.000767	
0.000072	0.051285	0.000767	
0.000072	0.051285	0.000767	
0.000072	0.051285	0.000767	
0.000072	0.051285	0.000767	
0.000072	0.051285	0.000767	
0.000072	0.051285	0.000767	
0.000072	0.051285	0.000767	
0.000072	0.051285	0.000767	
0.000072	0.051285	0.000767	
0.000072	0.051285	0.000767	
0.000072	0.051285	0.000767	
0.000072	0.051285	0.000767	
0.000072	0.051285	0.000767	
0.000072	0.051285	0.000767	
0.000072	0.051285	0.000767	
0.000072	0.051285	0.000767	
0.000072	0.051285	0.000767	
0.000072	0.051285	0.000767	
0.000072	0.051285	0.000767	
0.000072	0.051285	0.000767	
0.000072	0.051285	0.000767	
0.000072	0.051285	0.000767	
0.000072	0.051285	0.000767	
0.000072	0.051285	0.000767	
0.000072	0.051285	0.000767	
0.000072	0.051285	0.000767	
0.000072	0.051285	0.000767	
0.000072	0.051285	0.000767	
0.000072	0.051285	0.000767	
0.000072	0.051285	0.000767	
0.000072	0.051285	0.000767	
0.000072	0.051285	0.000767	
0.000072	0.051285	0.000767	
0.000072	0.051285	0.000767	
0.000072	0.051285	0.000767	
0.000072	0.051285	0.000767	
0.000072	0.051285	0.000767	
0.000072	0.051285	0.000767	
0.000072	0.051285	0.000767	
0.000072	0.051285	0.000767	
0.000072	0.051285	0.000767	
0.000072	0.051285	0.000767	
0.000072	0.051285	0.000767	
0.000072	0.051285	0.000767	
0.000072	0.051285	0.000767	
0.000072	0.051285	0.000767	
0.000072	0.051285	0.000767	
0.000072	0.051285	0.000767	
0.000072	0.051285	0.000767	
0.000072	0.051285	0.000767	
0.000072	0.051285	0.000767	
0.000072	0.051285	0.000767	
0.000072	0.051285	0.000767	
0.000072	0.051285	0.000767	
0.000072	0.051285	0.000767	
0.000072	0.051285	0.000767	
0.000072	0.051285	0.000767	
0.000072	0.051285	0.000767	
0.000072	0.051285	0.000767	
0.000072	0.051285	0.000767	
0.000072	0.051285	0.000767	
0.000072	0.051285	0.000767	
0.000072	0.051285	0.000767	
0.000072	0.051285	0.000767	
0.000072	0.051285	0.000767	
0.000072	0.051285	0.000767	
0.000072	0.051285	0.000767	
0.000072	0.051285	0.000767	
0.000072	0.051285	0.000767	
0.000072	0.051285	0.000767	
0.000072	0.051285	0.000767	
0.000072	0.051285	0.000767	
0.000072	0.051285	0.000767	
0.000072	0.051285	0.000767	
0.000072	0.051285	0.000767	
0.000072	0.051285	0.000767	
0.000072	0.051285	0.000767	
0.000072	0.051285	0.000767	
0.000072	0.051285	0.000767	
0.000072	0.051285	0.000767	
0.000072	0.051285	0.000767	
0.000072	0.051285	0.000767	
0.000072	0.051285	0.000767	
0.000072	0.051285	0.000767	
0.000072	0.051285	0.000767	
0.000072	0.051285	0.000767	
0.000072	0.051285	0.000767	
0.000072	0.051285	0.000767	
0.000072	0.051285	0.000767	
0.000072	0.051285	0.000767	
0.000072	0.051285	0.000767	
0.000072	0.051285	0.000767	
0.000072	0.051285	0.000767	
0.000072	0.051285	0.000767	
0.000072	0.051285	0.000767	
0.000072	0.051285	0.000767	
0.000072	0.051285	0.000767	
0.000072	0.051285	0.000767	
0.000072	0.051285	0.000767	
0.000072	0.051285	0.000767	
0.000072	0.051285	0.000767	
0.000072	0.051285	0.000767	
0.000072	0.051285	0.000767	
0.000072	0.051285	0.000767	
0.000072	0.051285	0.000767	
0.000072	0.051285	0.000767	
0.000072	0.051285	0.000767	
0.000072	0.051285	0.000767	
0.000072	0.051285	0.000767	
0.000072	0.051285	0.000767	
0.000072	0.051285	0.000767	
0.000072	0.051285	0.000767	
0.000072	0.051285	0.000767	
0.000072	0.051285	0.000767	
0.000072	0.051285	0.000767	
0.000072	0.051285	0.000767	
0.000072	0.051285	0.000767	
0.000072	0.051285	0.000767	
0.000072	0.051285	0.000767	
0.000072	0.051285	0.000767	
0.000072	0.051285	0.000767	
0.000072	0.051285	0.000767	
0.000072	0.051285	0.000767	
0.000072	0.051285	0.000767	
0.000072	0.051285	0.000767	
0.000072	0.051285	0.000767	
0.000072	0.051285	0.000767	
0.000072	0.051285	0.000767	
0.000072	0.051285	0.000767	
0.000072	0.051285	0.000767	
0.000072	0.051285	0.000767	
0.000072	0.051285	0.000767	
0.000072	0.051285	0.000767	
0.000072	0.051285	0.000767	
0.000072	0.051285	0.000767	
0.000072	0.051285	0.000767	
0.000072	0.051285	0.000767	
0.000072	0.051285	0.000767	
0.000072	0.051285	0.000767	
0.000072	0.051285	0.000767	
0.000072	0.051285	0.000767	
0.000072	0.051285	0.000767	
0.000072	0.051285	0.000767	
0.000072	0.051285	0.000767	
0.000072	0.051285	0.000767	
0.000072	0.051285	0.000767	
0.000072	0.051285	0.000767	
0.000072	0.051285	0.000767	
0.000072	0.051285	0.000767	
0.000072	0.051285	0.000767	
0.000072	0.051285	0.000767	
0.000072	0.051285	0.000767	
0.000072	0.051285	0.000767	
0.000072	0.051285	0.000767	
0.000072	0.051285	0.000767	
0.000072	0.051285	0.000767	
0.000072	0.051285	0.000767	
0.000072	0.051285	0.000767	
0.000072	0.051285	0.000767	
0.000072	0.051285	0.000767	
0.000072	0.051285	0.000767	
0.000072	0.051285	0.000767	
0.000072	0.051285	0.000767	
0.000072	0.051285	0.000767	
0.000072	0.051285	0.000767	
0.000072	0.051285	0.000767	
0.000072	0.051285	0.000767	
0.000072	0.051285	0.000767	
0.000072	0.051285	0.000767	
0.000072	0.051285	0.000767	
0.000072	0.051285	0.000767	
0.000072	0.051285	0.000767	
0.000072	0.051285	0.000767	
0.000072	0.051285	0.000767	
0.000072	0.051285	0.000767	
0.000072	0.051285	0.000767	
0.000072	0.051285	0.000767	
0.000072	0.051285	0.000767	
0.000072	0.051285	0.000767	
0.000072	0.051285	0.000767	
0.000072	0.051285	0.000767	
0.000072	0.051285	0.000767	
0.000072	0.051285	0.000767	
0.000072	0.051285	0.000767	
0.000072	0.051285	0.000767	
0.000072	0.051285	0.000767	
0.000072	0.051285	0.000767	
0.000072	0.051285	0.000767	
0.000072	0.051285	0.000767	
0.000072	0.051285	0.000767	
0.000072	0.051285	0.000767	
0.000072	0.051285	0.000767	
0.000072	0.051285	0.000767	
0.000072	0.051285	0.000767	
0.000072	0.051285	0.000767	
0.000072	0.051285	0.000767	
0.000072	0.051285	0.000767	
0.000072	0.051285	0.000767	
0.000072	0.051285	0.000767	
0.000072	0.051285	0.000767	
0.000072	0.051285	0.000767	
0.000072	0.051285	0.000767	
0.000072	0.051285	0.000767	
0.000072	0.051285	0.000767	
0.000072	0.051285	0.000767	
0.000072	0.051285	0.000767	
0.000072	0.051285	0.000767	
0.000072	0.051285	0.000767	
0.000072	0.051285	0.000767	
0.000072	0.051285	0.000767	
0.000072	0.051285	0.000767	
0.000072	0.051285	0.000767	
0.000072	0.051285	0.000767	
0.000072	0.051285	0.000767	
0.000072	0.051285	0.000767	
0.000072	0.051285	0.000767	
0.000072	0.051285	0.000767	
0.000072	0.051285	0.000767	
0.000072	0.051285	0.000767	
0.000072	0.051285	0.000767	
0.000072	0.051285	0.000767	
0.000072	0.051285	0.000767	
0.000072	0.051285	0.000767	
0.000072	0.051285	0.000767	
0.000072	0.051285	0.000767	
0.000072	0.051285	0.000767	
0.000072	0.051285	0.000767	
0.000072	0.051285	0.000767	
0.000072	0.051285	0.000767	
0.000072	0.051285	0.000767	
0.000072	0.051285	0.000767	
0.000072	0.051285	0.000767	
0.000072	0.051285	0.000767	
0.000072	0.051285	0.000767	
0.000072	0.051285	0.000767	
0.000072	0.051285	0.000767	
0.000072	0.051285	0.000767	
0.000072	0.051285	0.000767	
0.000072	0.051285	0.000767	
0.000072	0.051285	0.000767	
0.000072	0.051285	0.000767	
0.000072	0.051285	0.000767	
0.000072	0.051285	0.000767	
0.000072	0.051285	0.000767	
0.000072	0.051285	0.000767	
0.000072	0.051285	0.000767	
0.000072	0.051285	0.000767	
0.000072	0.051285	0.000767	
0.000072	0.051285	0.000767	
0.000072	0.051285	0.000767	
0.000072	0.051285	0.000767	
0.000072	0.051285	0.000767	
0.000072	0.051285	0.000767	
0.000072	0.051285	0.000767	
0.000072	0.051285	0.000767	
0.000072	0.051285	0.000767	
0.000072	0.051285	0.000767	
0.000072	0.051285	0.000767	
0.000072	0.051285	0.000767	
0.000072	0.051285	0.000767	
0.000072	0.051285	0.000767	
0.000072	0.051285	0.000767	
0.000072	0.051285	0.000767	
0.000072	0.051285	0.000767	
0.000072	0.051285	0.000767	
0.000072	0.051285	0.000767	
0.000072	0.051285	0.000767	
0.000072	0.051285	0.000767	
0.000072	0.051285	0.000767	
0.000072	0.051285	0.000767	
0.000072	0.051285	0.000767	
0.000072	0.051285	0.000767	
0.000072	0.051285	0.000767	
0.000072	0.051285	0.000767	
0.000072	0.051285	0.000767	
0.000072	0.051285	0.000767	
0.000072	0.051285	0.000767	
0.000072	0.051285	0.000767	
0.000072	0.051285	0.000767	
0.000072	0.051285	0.000767	
0.000072	0.051285	0.000767	
0.000072	0.051285	0.000767	
0.000072	0.051285	0.000767	
0.000072	0.051285	0.000767	
0.000072	0.051285	0.000767	
0.000072	0.051285	0.000767	
0.000072	0.051286	0.000767	
0.003533	0.195793	0.000914	
0.009704	0.265011	0.000956	
0.012775	0.286457	0.000968	
0.016700	0.308398	0.000980	
0.020677	0.326619	0.000990	
0.023844	0.339121	0.000996	
0.025924	0.346586	0.001000	
0.027123	0.350660	0.001002	
0.027759	0.352760	0.001003	
0.028079	0.353802	0.001004	
0.028236	0.354307	0.001004	
0.028311	0.354549	0.001004	
0.028346	0.354661	0.001004	
0.028362	0.354715	0.001004	
0.028370	0.354738	0.001004	
0.028373	0.354749	0.001004	
0.028375	0.354754	0.001004	
0.028376	0.354757	0.001004	
0.028376	0.354757	0.001004	
0.028376	0.354758	0.001004	
0.028376	0.354758	0.001004	
0.028376	0.354758	0.001004	
0.028376	0.354758	0.001004	
0.028376	0.354758	0.001004	
0.028376	0.354758	0.001004	
0.028376	0.354758	0.001004	
0.028376	0.354758	0.001004	
0.028376	0.354758	0.001004	
0.028376	0.354758	0.001004	
0.028376	0.354758	0.001004	
0.028376	0.354758	0.001004	
0.028376	0.354758	0.001004	
0.028376	0.354758	0.001004	
0.028376	0.354758	0.001004	
0.028376	0.354757	0.001004	
0.028376	0.354757	0.001004	
0.028375	0.354756	0.001004	
0.028375	0.354756	0.001004	
0.028375	0.354754	0.001004	
0.028374	0.354753	0.001004	
0.028374	0.354750	0.001004	
0.028373	0.354747	0.001004	
0.028371	0.354743	0.001004	
0.028370	0.354739	0.001004	
0.028368	0.354734	0.001004	
0.028367	0.354728	0.001004	
0.028364	0.354720	0.001004	
0.028361	0.354710	0.001004	
0.028358	0.354699	0.001004	
0.028354	0.354687	0.001004	
0.028350	0.354673	0.001004	
0.028345	0.354659	0.001004	
0.028339	0.354641	0.001004	
0.028334	0.354623	0.001004	
0.028328	0.354603	0.001004	
0.028322	0.354583	0.001004	
0.028315	0.354563	0.001004	
0.028309	0.354542	0.001004	
0.028302	0.354522	0.001004	
0.028297	0.354503	0.001004	
0.028291	0.354486	0.001004	
0.028286	0.354470	0.001004	
0.028282	0.354458	0.001004	
0.028280	0.354448	0.001004	
0.028277	0.354441	0.001004	
0.028277	0.354440	0.001004	
0.028278	0.354443	0.001004	
0.028280	0.354451	0.001004	
0.028284	0.354462	0.001004	
0.028289	0.354478	0.001004	
0.028295	0.354497	0.001004	
0.028302	0.354520	0.001004	
0.028310	0.354545	0.001004	
0.028318	0.354571	0.001004	
0.028326	0.354597	0.001004	
0.028334	0.354623	0.001004	
0.028341	0.354647	0.001004	
0.032441	0.367060	0.001011	
0.382699	0.641564	0.001152	
0.382699	0.641564	0.001152	
0.382699	0.641564	0.001152	
0.382699	0.641564	0.001152	
0.382699	0.641564	0.001152	
0.382699	0.641564	0.001152	
0.382699	0.641564	0.001152	
0.382699	0.641564	0.001152	
0.382699	0.641564	0.001152	
0.382699	0.641564	0.001152	
0.382699	0.641564	0.001152	
0.382699	0.641564	0.001152	
0.382699	0.641564	0.001152	
0.382699	0.641564	0.001152	
0.382699	0.641564	0.001152	
0.382699	0.641564	0.001152	
0.382699	0.641564	0.001152	
0.382699	0.641564	0.001152	
0.382699	0.641564	0.001152	
0.382699	0.641564	0.001152	
0.382699	0.641564	0.001152	
0.382699	0.641564	0.001152	
0.382699	0.641564	0.001152	
0.382699	0.641564	0.001152	
0.382699	0.641564	0.001152	
0.382699	0.641564	0.001152	
0.382699	0.641564	0.001152	
0.382699	0.641564	0.001152	
0.382699	0.641564	0.001152	
0.382699	0.641564	0.001152	
0.382699	0.641564	0.001152	
0.382699	0.641564	0.001152	
0.382699	0.641564	0.001152	
0.382699	0.641564	0.001152	
0.382699	0.641564	0.001152	
0.382699	0.641564	0.001152	
0.382699	0.641564	0.001152	
0.382699	0.641564	0.001152	
0.382699	0.641564	0.001152	
0.382699	0.641564	0.001152	
0.382699	0.641564	0.001152	
0.382699	0.641564	0.001152	
0.382699	0.641564	0.001152	
0.382699	0.641564	0.001152	
0.382699	0.641564	0.001152	
0.382699	0.641564	0.001152	
0.382699	0.641564	0.001152	
0.382699	0.641564	0.001152	
0.382699	0.641564	0.001152	
0.382699	0.641564	0.001152	
0.382699	0.641564	0.001152	
0.382699	0.641564	0.001152	
0.382700	0.641564	0.001152	
0.382700	0.641565	0.001152	
0.382700	0.641565	0.001152	
0.382700	0.641565	0.001152	
0.382700	0.641565	0.001152	
0.382700	0.641565	0.001152	
0.382700	0.641565	0.001152	
0.382700	0.641565	0.001152	
0.382700	0.641565	0.001152	
0.382700	0.641565	0.001152	
0.382700	0.641565	0.001152	
0.382700	0.641565	0.001152	
0.382700	0.641565	0.001152	
0.382700	0.641565	0.001152	
0.382700	0.641565	0.001152	
0.382700	0.641565	0.001152	
0.382700	0.641565	0.001152	
0.382700	0.641565	0.001152	
0.382700	0.641565	0.001152	
0.382700	0.641565	0.001152	
0.382700	0.641565	0.001152	
0.382700	0.641565	0.001152	
0.382700	0.641565	0.001152	
0.382700	0.641565	0.001152	
0.382700	0.641565	0.001152	
0.382700	0.641565	0.001152	
0.382700	0.641565	0.001152	
0.382700	0.641565	0.001152	
0.382700	0.641565	0.001152	
0.382700	0.641565	0.001152	
0.382700	0.641565	0.001152	
0.382700	0.641565	0.001152	
0.382700	0.641565	0.001152	
0.382700	0.641565	0.001152	
0.382700	0.641565	0.001152	
0.346580	0.627591	0.001144	
0.215472	0.566513	0.001111	
0.215007	0.566251	0.001111	
0.215006	0.566251	0.001111	
0.215008	0.566252	0.001111	
0.215020	0.566259	0.001111	
0.215208	0.566364	0.001111	
0.217838	0.567834	0.001112	
0.238207	0.578776	0.001117	
0.259905	0.589667	0.001123	
0.262969	0.591150	0.001124	
0.263209	0.591265	0.001124	
0.263236	0.591279	0.001124	
0.263255	0.591287	0.001124	
0.263280	0.591300	0.001124	
0.263319	0.591318	0.001124	
0.263378	0.591347	0.001124	
0.263470	0.591391	0.001124	
0.263604	0.591456	0.001124	
0.263803	0.591551	0.001124	
0.264086	0.591687	0.001124	
0.264479	0.591876	0.001124	
0.265009	0.592130	0.001125	
0.265695	0.592458	0.001125	
0.266549	0.592866	0.001125	
0.267565	0.593350	0.001125	
0.268715	0.593896	0.001126	
0.269947	0.594479	0.001126	
0.271194	0.595068	0.001126	
0.272372	0.595622	0.001127	
0.273395	0.596101	0.001127	
0.274175	0.596466	0.001127	
0.274629	0.596678	0.001127	
0.274678	0.596701	0.001127	
0.274235	0.596494	0.001127	
0.273197	0.596009	0.001127	
0.271441	0.595184	0.001126	
0.268815	0.593944	0.001126	
0.265157	0.592201	0.001125	
0.260335	0.589876	0.001123	
0.254317	0.586930	0.001122	
0.247234	0.583395	0.001120	
0.239437	0.579413	0.001118	
0.231422	0.575215	0.001116	
0.223739	0.571083	0.001113	
0.216847	0.567282	0.001111	
0.211020	0.563993	0.001110	
0.206374	0.561318	0.001108	
0.202904	0.559289	0.001107	
0.200553	0.557899	0.001106	
0.199246	0.557120	0.001106	
0.198929	0.556930	0.001106	
0.199575	0.557316	0.001106	
0.201186	0.558274	0.001107	
0.203783	0.559806	0.001107	
0.207375	0.561899	0.001109	
0.211915	0.564503	0.001110	
0.217257	0.567511	0.001111	
0.223134	0.570754	0.001113	
0.229193	0.574027	0.001115	
0.235035	0.577121	0.001117	
0.240296	0.579856	0.001118	
0.244756	0.582139	0.001119	
0.248326	0.583945	0.001120	
0.251040	0.585304	0.001121	
0.252995	0.586276	0.001121	
0.254293	0.586918	0.001122	
0.255010	0.587272	0.001122	
0.255169	0.587350	0.001122	
0.254709	0.587124	0.001122	
0.253435	0.586494	0.001122	
0.250913	0.585240	0.001121	
0.246323	0.582934	0.001120	
0.238282	0.578815	0.001117	
0.225178	0.571866	0.001114	
0.207219	0.561808	0.001108	
0.189233	0.551012	0.001103	
0.177159	0.543286	0.001099	
0.171614	0.539592	0.001097	
0.169772	0.538343	0.001096	
0.169368	0.538067	0.001096	
0.169403	0.538091	0.001096	
0.169546	0.538188	0.001096	
0.169705	0.538297	0.001096	
0.169855	0.538399	0.001096	
0.169984	0.538487	0.001096	
0.170086	0.538556	0.001096	
0.170154	0.538602	0.001096	
0.170185	0.538624	0.001096	
0.170181	0.538621	0.001096	
0.170143	0.538595	0.001096	
0.170075	0.538549	0.001096	
0.169984	0.538487	0.001096	
0.169875	0.538413	0.001096	
0.169757	0.538332	0.001096	
0.169633	0.538248	0.001096	
0.169513	0.538166	0.001096	
0.169398	0.538088	0.001096	
0.169293	0.538016	0.001096	
0.169201	0.537953	0.001096	
0.169123	0.537900	0.001096	
0.169060	0.537857	0.001096	
0.169015	0.537826	0.001096	
0.168986	0.537807	0.001096	
0.168976	0.537799	0.001096	
0.168987	0.537807	0.001096	
0.169022	0.537831	0.001096	
0.169085	0.537874	0.001096	
0.169180	0.537939	0.001096	
0.169317	0.538032	0.001096	
0.169492	0.538152	0.001096	
0.169364	0.538065	0.001096	
0.159969	0.531499	0.001093	
0.050945	0.410225	0.001032	
0.015171	0.300417	0.000976	
0.014526	0.296848	0.000974	
0.014814	0.298457	0.000975	
0.015246	0.300824	0.000976	
0.015857	0.304078	0.000978	
0.016715	0.308476	0.000980	
0.017906	0.314275	0.000983	
0.019520	0.321645	0.000987	
0.021633	0.330552	0.000992	
0.024261	0.340659	0.000997	
0.027328	0.351341	0.001003	
0.030652	0.361817	0.001008	
0.034007	0.371446	0.001013	
0.037446	0.380501	0.001018	
0.042910	0.393506	0.001024	
0.059788	0.426148	0.001040	
0.095389	0.474473	0.001064	
0.121078	0.500266	0.001077	
0.130747	0.508754	0.001081	
0.134342	0.511772	0.001083	
0.136000	0.513141	0.001084	
0.136919	0.513894	0.001084	
0.137477	0.514349	0.001084	
0.137813	0.514622	0.001084	
0.137988	0.514764	0.001084	
0.138026	0.514795	0.001084	
0.137927	0.514714	0.001084	
0.137670	0.514506	0.001084	
0.137196	0.514120	0.001084	
0.136388	0.513459	0.001084	
0.135006	0.512322	0.001083	
0.132604	0.510322	0.001082	
0.128400	0.506744	0.001080	
0.121296	0.500463	0.001077	
0.110372	0.490156	0.001072	
0.096051	0.475211	0.001065	
0.080745	0.456911	0.001055	
0.067271	0.438084	0.001046	
0.056868	0.421132	0.001038	
0.049226	0.406852	0.001031	
0.043560	0.394955	0.001025	
0.039233	0.384925	0.001020	
0.035880	0.376470	0.001015	
0.033327	0.369564	0.001012	
0.031521	0.364397	0.001009	
0.030468	0.361265	0.001008	
0.030213	0.360493	0.001007	
0.030806	0.362281	0.001008	
0.032265	0.366555	0.001010	
0.034502	0.372799	0.001014	
0.037271	0.380058	0.001017	
0.040159	0.387150	0.001021	
0.042691	0.393013	0.001024	
0.044427	0.396860	0.001026	
0.045039	0.398186	0.001026	
0.044246	0.396464	0.001025	
0.041791	0.390964	0.001023	
0.037573	0.380823	0.001018	
0.032060	0.365964	0.001010	
0.026617	0.348960	0.001002	
0.022787	0.335114	0.000994	
0.021046	0.328155	0.000991	
0.020860	0.327382	0.000990	
0.021555	0.330237	0.000992	
0.022731	0.334894	0.000994	
0.024224	0.340525	0.000997	
0.025985	0.346796	0.001000	
0.027971	0.353449	0.001004	
0.030131	0.360244	0.001007	
0.032386	0.366901	0.001011	
0.034644	0.373182	0.001014	
0.036813	0.378889	0.001017	
0.038814	0.383903	0.001019	
0.040595	0.388181	0.001021	
0.042127	0.391734	0.001023	
0.043392	0.394582	0.001025	
0.044269	0.396515	0.001026	
0.043852	0.395599	0.001025	
0.038104	0.382150	0.001018	
0.026898	0.349909	0.001002	
0.022022	0.332111	0.000993	
0.021168	0.328659	0.000991	
0.021110	0.328421	0.000991	
0.021158	0.328618	0.000991	
0.021197	0.328777	0.000991	
0.021209	0.328825	0.000991	
0.021190	0.328749	0.000991	
0.021140	0.328544	0.000991	
0.021055	0.328192	0.000991	
0.020929	0.327671	0.000990	
0.020757	0.326953	0.000990	
0.020528	0.325992	0.000990	
0.020233	0.324736	0.000989	
0.019857	0.323119	0.000988	
0.019389	0.321066	0.000987	
0.018813	0.318484	0.000986	
0.018123	0.315302	0.000984	
0.017318	0.311455	0.000982	
0.016407	0.306919	0.000980	
0.015414	0.301730	0.000977	
0.014374	0.295993	0.000974	
0.013330	0.289875	0.000970	
0.012327	0.283611	0.000967	
0.011402	0.277454	0.000963	
0.010579	0.271629	0.000960	
0.009871	0.266311	0.000957	
0.009278	0.261616	0.000954	
0.008793	0.257597	0.000952	
0.008407	0.254264	0.000950	
0.008106	0.251581	0.000949	
0.007878	0.249492	0.000947	
0.007713	0.247954	0.000946	
0.007604	0.246922	0.000946	
0.007544	0.246346	0.000945	
0.007528	0.246195	0.000945	
0.007554	0.246440	0.000946	
0.007619	0.247066	0.000946	
0.007724	0.248058	0.000947	
0.007868	0.249404	0.000947	
0.008051	0.251082	0.000948	
0.008273	0.253076	0.000949	
0.008532	0.255350	0.000951	
0.008825	0.257867	0.000952	
0.009150	0.260572	0.000954	
0.009499	0.263393	0.000955	
0.009863	0.266251	0.000957	
0.010232	0.269060	0.000959	
0.010596	0.271750	0.000960	
0.010942	0.274239	0.000962	
0.011258	0.276462	0.000963	
0.011535	0.278366	0.000964	
0.011762	0.279901	0.000965	
0.011932	0.281029	0.000965	
0.012039	0.281736	0.000966	
0.012081	0.282009	0.000966	
0.012055	0.281841	0.000966	
0.011962	0.281230	0.000965	
0.011805	0.280186	0.000965	
0.011588	0.278726	0.000964	
0.011317	0.276873	0.000963	
0.011001	0.274659	0.000962	
0.010648	0.272133	0.000960	
0.010271	0.269350	0.000959	
0.009878	0.266369	0.000957	
0.009484	0.263274	0.000955	
0.009096	0.260127	0.000954	
0.008724	0.257005	0.000952	
0.008374	0.253971	0.000950	
0.008050	0.251074	0.000948	
0.007756	0.248361	0.000947	
0.007494	0.245864	0.000945	
0.007261	0.243591	0.000944	
0.007056	0.241547	0.000943	
0.006878	0.239728	0.000942	
0.006723	0.238121	0.000941	
0.006590	0.236710	0.000940	
0.006474	0.235471	0.000939	
0.006375	0.234393	0.000938	
0.006290	0.233453	0.000938	
0.006216	0.232631	0.000937	
0.006152	0.231913	0.000937	
0.006096	0.231279	0.000936	
0.006046	0.230717	0.000936	
0.006002	0.230213	0.000936	
0.005963	0.229758	0.000935	
0.005926	0.229339	0.000935	
0.005893	0.228950	0.000935	
0.005862	0.228583	0.000935	
0.005831	0.228231	0.000935	
0.005802	0.227885	0.000934	
0.005773	0.227547	0.000934	
0.005745	0.227210	0.000934	
0.005717	0.226875	0.000934	
0.005689	0.226542	0.000933	
0.005661	0.226212	0.000933	
0.005634	0.225882	0.000933	
0.005607	0.225556	0.000933	
0.005580	0.225234	0.000933	
0.005555	0.224920	0.000932	
0.005530	0.224616	0.000932	
0.005506	0.224323	0.000932	
0.005483	0.224041	0.000932	
0.005461	0.223775	0.000932	
0.005441	0.223524	0.000932	
0.005422	0.223288	0.000931	
0.005405	0.223070	0.000931	
0.005388	0.222866	0.000931	
0.005373	0.222682	0.000931	
0.005360	0.222512	0.000931	
0.005348	0.222358	0.000931	
0.005336	0.222218	0.000931	
0.005326	0.222092	0.000931	
0.005317	0.221978	0.000931	
0.005309	0.221877	0.000931	
0.005302	0.221786	0.000931	
0.005296	0.221704	0.000930	
0.005290	0.221631	0.000930	
0.005285	0.221566	0.000930	
0.005280	0.221508	0.000930	
0.005276	0.221456	0.000930	
0.005272	0.221409	0.000930	
0.005269	0.221368	0.000930	
0.005266	0.221330	0.000930	
0.005264	0.221295	0.000930	
0.005261	0.221263	0.000930	
0.005258	0.221231	0.000930	
0.005256	0.221199	0.000930	
0.005253	0.221163	0.000930	
0.005249	0.221113	0.000930	
0.005243	0.221028	0.000930	
0.005229	0.220854	0.000930	
0.005197	0.220441	0.000930	
0.005116	0.219399	0.000929	
0.004914	0.216726	0.000927	
0.004443	0.210171	0.000923	
0.003570	0.196420	0.000914	
0.002518	0.175947	0.000900	
0.001788	0.157532	0.000886	
0.001455	0.147244	0.000878	
0.001330	0.142956	0.000874	
0.001287	0.141377	0.000873	
0.001271	0.140800	0.000872	
0.001265	0.140562	0.000872	
0.001261	0.140429	0.000872	
0.001258	0.140323	0.000872	
0.001255	0.140220	0.000872	
0.001252	0.140108	0.000872	
0.001249	0.139985	0.000872	
0.001245	0.139851	0.000872	
0.001241	0.139703	0.000872	
0.001237	0.139542	0.000871	
0.001232	0.139367	0.000871	
0.001227	0.139177	0.000871	
0.001222	0.138971	0.000871	
0.001216	0.138746	0.000871	
0.001210	0.138505	0.000871	
0.001203	0.138242	0.000870	
0.001195	0.137953	0.000870	
0.001187	0.137634	0.000870	
0.001178	0.137281	0.000870	
0.001168	0.136883	0.000869	
0.001156	0.136434	0.000869	
0.001143	0.135918	0.000868	
0.001128	0.135322	0.000868	
0.001111	0.134627	0.000867	
0.001091	0.133809	0.000867	
0.001068	0.132837	0.000866	
0.001040	0.131675	0.000865	
0.001008	0.130278	0.000863	
0.000969	0.128595	0.000862	
0.000925	0.126571	0.000860	
0.000873	0.124150	0.000858	
0.000815	0.121278	0.000855	
0.000751	0.117921	0.000852	
0.000681	0.114082	0.000848	
0.000610	0.109831	0.000844	
0.000540	0.105293	0.000840	
0.000474	0.100663	0.000835	
0.000416	0.096178	0.000830	
0.000367	0.092063	0.000825	
0.000124	0.062447	0.000786	
0.000072	0.051285	0.000767	
0.000072	0.051285	0.000767	
0.000072	0.051285	0.000767	
0.000072	0.051285	0.000767	
0.000072	0.051285	0.000767	
0.000072	0.051285	0.000767	
0.000072	0.051285	0.000767	
0.000072	0.051285	0.000767	
0.000072	0.051285	0.000767	
0.000072	0.051285	0.000767	
0.000072	0.051285	0.000767	
0.000072	0.051285	0.000767	
0.000072	0.051285	0.000767	
0.000072	0.051285	0.000767	
0.000072	0.051285	0.000767	
0.000072	0.051285	0.000767	
0.000072	0.051285	0.000767	
0.000072	0.051285	0.000767	
0.000072	0.051285	0.000767	
0.000072	0.051285	0.000767	
0.000072	0.051285	0.000767	
0.000072	0.051285	0.000767	
0.000072	0.051285	0.000767	
0.000072	0.051285	0.000767	
0.000072	0.051285	0.000767	
0.000072	0.051285	0.000767	
0.000072	0.051285	0.000767	
0.000072	0.051285	0.000767	
0.000072	0.051285	0.000767	
0.000072	0.051285	0.000767	
0.000072	0.051285	0.000767	
0.000072	0.051285	0.000767	
0.000072	0.051285	0.000767	
0.000072	0.051285	0.000767	
0.000072	0.051285	0.000767	
0.000072	0.051285	0.000767	
0.000072	0.051285	0.000767	
0.000072	0.051285	0.000767	
0.000072	0.051285	0.000767	
0.000072	0.051285	0.000767	
0.000072	0.051285	0.000767	
0.000072	0.051285	0.000767	
0.000072	0.051285	0.000767	
0.000072	0.051285	0.000767	
0.000072	0.051285	0.000767	
0.000072	0.051285	0.000767	
0.000072	0.051285	0.000767	
0.000072	0.051285	0.000767	
0.000072	0.051285	0.000767	
0.000072	0.051285	0.000767	
0.000072	0.051285	0.000767	
0.000072	0.051285	0.000767	
0.000072	0.051285	0.000767	
0.000072	0.051285	0.000767	
0.000072	0.051285	0.000767	
0.000072	0.051285	0.000767	
0.000072	0.051285	0.000767	
0.000072	0.051285	0.000767	
0.000072	0.051285	0.000767	
0.000072	0.051285	0.000767	
0.000072	0.051285	0.000767	
0.000072	0.051285	0.000767	
0.000072	0.051285	0.000767	
0.000072	0.051285	0.000767	
0.000072	0.051285	0.000767	
0.000072	0.051285	0.000767	
0.000072	0.051285	0.000767	
0.000072	0.051285	0.000767	
0.000072	0.051285	0.000767	
0.000072	0.051285	0.000767	
0.000072	0.051285	0.000767	
0.000072	0.051285	0.000767	
0.000072	0.051285	0.000767	
0.000072	0.051285	0.000767	
0.000072	0.051285	0.000767	
0.000072	0.051285	0.000767	
0.000072	0.051285	0.000767	
0.000072	0.051285	0.000767	
0.000072	0.051285	0.000767	
0.000072	0.051285	0.000767	
0.000072	0.051285	0.000767	
0.000072	0.051285	0.000767	
0.000072	0.051285	0.000767	
0.000072	0.051285	0.000767	
0.000072	0.051285	0.000767	
0.000072	0.051285	0.000767	
0.000072	0.051285	0.000767	
0.000072	0.051285	0.000767	
0.000072	0.051285	0.000767	
0.000072	0.051285	0.000767	
0.000072	0.051285	0.000767	
0.000072	0.051285	0.000767	
0.000072	0.051285	0.000767	
0.000072	0.051285	0.000767	
0.000072	0.051285	0.000767	
0.000072	0.051285	0.000767	
0.000072	0.051285	0.000767	
0.000072	0.051285	0.000767	
0.000072	0.051285	0.000767	
0.000072	0.051285	0.000767	
0.000072	0.051285	0.000767	
0.000072	0.051285	0.000767	
0.000072	0.051285	0.000767	
0.000072	0.051285	0.000767	
0.000072	0.051285	0.000767	
0.000072	0.051285	0.000767	
0.000072	0.051285	0.000767	
0.000072	0.051285	0.000767	
0.000072	0.051285	0.000767	
0.000072	0.051285	0.000767	
0.000072	0.051285	0.000767	
0.000072	0.051285	0.000767	
0.000072	0.051285	0.000767	
0.000072	0.051285	0.000767	
0.000072	0.051285	0.000767	
0.000072	0.051285	0.000767	
0.000072	0.051285	0.000767	
0.000072	0.051285	0.000767	
0.000072	0.051285	0.000767	
0.000072	0.051285	0.000767	
0.000072	0.051285	0.000767	
0.000072	0.051285	0.000767	
0.000072	0.051285	0.000767	
0.000072	0.051285	0.000767	
0.000072	0.051285	0.000767	
0.000072	0.051285	0.000767	
0.000072	0.051285	0.000767	
0.000072	0.051285	0.000767	
0.000072	0.051285	0.000767	
0.000072	0.051285	0.000767	
0.000072	0.051285	0.000767	
0.000072	0.051285	0.000767	
0.000072	0.051285	0.000767	
0.000072	0.051285	0.000767	
0.000072	0.051285	0.000767	
0.000072	0.051285	0.000767	
0.000072	0.051285	0.000767	
0.000072	0.051285	0.000767	
0.000072	0.051285	0.000767	
0.000072	0.051285	0.000767	
0.000072	0.051285	0.000767	
0.000072	0.051285	0.000767	
0.000072	0.051285	0.000767	
0.000072	0.051285	0.000767	
0.000072	0.051285	0.000767	
0.000072	0.051285	0.000767	
0.000072	0.051285	0.000767	
0.000072	0.051285	0.000767	
0.000072	0.051285	0.000767	
0.000072	0.051285	0.000767	
0.000072	0.051285	0.000767	
0.000072	0.051285	0.000767	
0.000072	0.051285	0.000767	
0.000072	0.051285	0.000767	
0.000072	0.051285	0.000767	
0.000072	0.051285	0.000767	
0.000072	0.051285	0.000767	
0.000072	0.051285	0.000767	
0.000072	0.051285	0.000767	
0.000072	0.051285	0.000767	
0.000072	0.051285	0.000767	
0.000072	0.051285	0.000767	
0.000072	0.051285	0.000767	
0.000072	0.051285	0.000767	
0.000072	0.051285	0.000767	
0.000072	0.051285	0.000767	
0.000072	0.051285	0.000767	
0.000072	0.051285	0.000767	
0.000072	0.051285	0.000767	
0.000072	0.051285	0.000767	
0.000072	0.051285	0.000767	
0.000072	0.051285	0.000767	
0.000072	0.051285	0.000767	
0.000072	0.051285	0.000767	
0.000072	0.051285	0.000767	
0.000072	0.051285	0.000767	
0.000072	0.051285	0.000767	
0.000072	0.051285	0.000767	
0.000072	0.051285	0.000767	
0.000072	0.051285	0.000767	
0.000072	0.051285	0.000767	
0.000072	0.051285	0.000767	
0.000072	0.051285	0.000767	
0.000072	0.051285	0.000767	
0.000072	0.051285	0.000767	
0.000072	0.051285	0.000767	
0.000072	0.051285	0.000767	
0.000072	0.051285	0.000767	
0.000072	0.051285	0.000767	
0.000072	0.051285	0.000767	
0.000072	0.051285	0.000767	
0.000072	0.051285	0.000767	
0.000072	0.051285	0.000767	
0.000072	0.051285	0.000767	
0.000072	0.051285	0.000767	
0.000072	0.051285	0.000767	
0.000072	0.051285	0.000767	
0.000072	0.051285	0.000767	
0.000072	0.051285	0.000767	
0.000072	0.051285	0.000767	
0.000072	0.051285	0.000767	
0.000072	0.051285	0.000767	
0.000072	0.051285	0.000767	
0.000072	0.051285	0.000767	
0.000072	0.051285	0.000767	
0.000072	0.051285	0.000767	
0.000072	0.051285	0.000767	
0.000072	0.051285	0.000767	
0.000072	0.051285	0.000767	
0.000072	0.051285	0.000767	
0.000072	0.051285	0.000767	
0.000072	0.051285	0.000767	
0.000072	0.051285	0.000767	
0.000072	0.051285	0.000767	
0.000072	0.051285	0.000767	
0.000072	0.051285	0.000767	
0.000072	0.051285	0.000767	
0.000072	0.051285	0.000767	
0.000072	0.051285	0.000767	
0.000072	0.051285	0.000767	
0.000072	0.051285	0.000767	
0.000072	0.051285	0.000767	
0.000072	0.051285	0.000767	
0.000072	0.051285	0.000767	
0.000072	0.051285	0.000767	
0.000072	0.051285	0.000767	
0.000072	0.051285	0.000767	
0.000072	0.051285	0.000767	
0.000072	0.051285	0.000767	
0.000072	0.051285	0.000767	
0.000072	0.051285	0.000767	
0.000072	0.051285	0.000767	
0.000072	0.051285	0.000767	
0.000072	0.051285	0.000767	
0.000072	0.051285	0.000767	
0.000072	0.051285	0.000767	
0.000072	0.051285	0.000767	
0.000072	0.051285	0.000767	
0.000072	0.051285	0.000767	
0.000072	0.051285	0.000767	
0.000072	0.051285	0.000767	
0.000072	0.051285	0.000767	
0.000072	0.051285	0.000767	
0.000072	0.051285	0.000767	
0.000072	0.051285	0.000767	
0.000072	0.051285	0.000767	
0.000072	0.051285	0.000767	
0.000072	0.051285	0.000767	
0.000072	0.051285	0.000767	
0.000072	0.051285	0.000767	
0.000072	0.051285	0.000767	
0.000072	0.051285	0.000767	
0.000072	0.051285	0.000767	
0.000072	0.051285	0.000767	
0.000072	0.051285	0.000767	
0.000072	0.051285	0.000767	
0.000072	0.051285	0.000767	
0.000072	0.051285	0.000767	
0.000072	0.051285	0.000767	
0.000072	0.051285	0.000767	
0.000072	0.051285	0.000767	
0.000072	0.051285	0.000767	
0.000072	0.051285	0.000767	
0.000072	0.051285	0.000767	
0.000072	0.051285	0.000767	
0.000072	0.051285	0.000767	
0.000072	0.051285	0.000767	
0.000072	0.051285	0.000767	
0.000072	0.051285	0.000767	
0.000072	0.051285	0.000767	
0.000072	0.051285	0.000767	
0.000072	0.051285	0.000767	
0.000072	0.051285	0.000767	
0.000072	0.051285	0.000767	
0.000072	0.051285	0.000767	
0.000072	0.051285	0.000767	
0.000072	0.051285	0.000767	
0.000072	0.051285	0.000767	
0.000072	0.051285	0.000767	
0.000072	0.051285	0.000767	
0.000072	0.051285	0.000767	
0.000072	0.051285	0.000767	
0.000072	0.051285	0.000767	
0.000072	0.051285	0.000767	
0.000072	0.051285	0.000767	
0.000072	0.051285	0.000767	
0.000072	0.051285	0.000767	
0.000072	0.051285	0.000767	
0.000072	0.051285	0.000767	
0.000072	0.051285	0.000767	
0.000072	0.051285	0.000767	
0.000072	0.051285	0.000767	
0.000072	0.051285	0.000767	
0.000072	0.051285	0.000767	
0.000072	0.051285	0.000767	
0.000072	0.051285	0.000767	
0.000072	0.051285	0.000767	
0.000072	0.051285	0.000767	
0.000072	0.051285	0.000767	
0.000072	0.051285	0.000767	
0.000072	0.051285	0.000767	
0.000072	0.051285	0.000767	
0.000072	0.051285	0.000767	
0.000072	0.051285	0.000767	
0.000072	0.051285	0.000767	
0.000072	0.051285	0.000767	
0.000072	0.051285	0.000767	
0.000072	0.051285	0.000767	
0.000072	0.051285	0.000767	
0.000072	0.051285	0.000767	
0.000072	0.051285	0.000767	
0.000072	0.051285	0.000767	
0.000072	0.051285	0.000767	
0.000072	0.051285	0.000767	
0.000072	0.051289	0.000767	
0.017569	0.312671	0.000983	
0.027970	0.353448	0.001004	
0.028202	0.354199	0.001004	
0.028294	0.354493	0.001004	
0.028336	0.354631	0.001004	
0.028357	0.354698	0.001004	
0.028367	0.354730	0.001004	
0.028371	0.354743	0.001004	
0.028374	0.354751	0.001004	
0.028375	0.354754	0.001004	
0.028375	0.354756	0.001004	
0.028376	0.354757	0.001004	
0.028375	0.354756	0.001004	
0.028376	0.354757	0.001004	
0.028376	0.354757	0.001004	
0.028376	0.354757	0.001004	
0.028376	0.354757	0.001004	
0.028375	0.354756	0.001004	
0.028375	0.354756	0.001004	
0.028375	0.354756	0.001004	
0.028375	0.354756	0.001004	
0.028375	0.354756	0.001004	
0.028375	0.354756	0.001004	
0.028375	0.354756	0.001004	
0.028375	0.354756	0.001004	
0.028375	0.354756	0.001004	
0.028375	0.354756	0.001004	
0.028376	0.354757	0.001004	
0.028376	0.354757	0.001004	
0.028376	0.354757	0.001004	
0.028376	0.354757	0.001004	
0.028375	0.354756	0.001004	
0.028376	0.354757	0.001004	
0.028375	0.354756	0.001004	
0.028376	0.354757	0.001004	
0.028375	0.354756	0.001004	
0.028375	0.354756	0.001004	
0.028375	0.354754	0.001004	
0.028375	0.354754	0.001004	
0.028374	0.354753	0.001004	
0.028374	0.354751	0.001004	
0.028373	0.354749	0.001004	
0.028373	0.354747	0.001004	
0.028371	0.354743	0.001004	
0.028370	0.354739	0.001004	
0.028369	0.354735	0.001004	
0.028367	0.354728	0.001004	
0.028365	0.354721	0.001004	
0.028362	0.354713	0.001004	
0.028359	0.354704	0.001004	
0.028356	0.354693	0.001004	
0.028352	0.354682	0.001004	
0.028348	0.354670	0.001004	
0.028344	0.354656	0.001004	
0.028340	0.354642	0.001004	
0.028336	0.354629	0.001004	
0.028332	0.354616	0.001004	
0.028328	0.354603	0.001004	
0.028324	0.354590	0.001004	
0.028320	0.354579	0.001004	
0.028317	0.354570	0.001004	
0.028315	0.354562	0.001004	
0.028314	0.354557	0.001004	
0.028312	0.354553	0.001004	
0.028313	0.354555	0.001004	
0.028314	0.354557	0.001004	
0.028315	0.354563	0.001004	
0.028318	0.354572	0.001004	
0.028322	0.354583	0.001004	
0.028326	0.354598	0.001004	
0.028331	0.354613	0.001004	
0.028336	0.354631	0.001004	
0.028342	0.354649	0.001004	
0.028347	0.354665	0.001004	
0.028352	0.354682	0.001004	
0.028357	0.354697	0.001004	
0.028361	0.354710	0.001004	
0.028365	0.354721	0.001004	
0.028384	0.354784	0.001004	
0.382392	0.641449	0.001152	
0.382699	0.641564	0.001152	
0.382699	0.641564	0.001152	
0.382699	0.641564	0.001152	
0.382699	0.641564	0.001152	
0.382699	0.641564	0.001152	
0.382699	0.641564	0.001152	
0.382699	0.641564	0.001152	
0.382699	0.641564	0.001152	
0.382699	0.641564	0.001152	
0.382699	0.641564	0.001152	
0.382699	0.641564	0.001152	
0.382699	0.641564	0.001152	
0.382699	0.641564	0.001152	
0.382699	0.641564	0.001152	
0.382699	0.641564	0.001152	
0.382699	0.641564	0.001152	
0.382699	0.641564	0.001152	
0.382699	0.641564	0.001152	
0.382699	0.641564	0.001152	
0.382699	0.641564	0.001152	
0.382699	0.641564	0.001152	
0.382699	0.641564	0.001152	
0.382699	0.641564	0.001152	
0.382699	0.641564	0.001152	
0.382699	0.641564	0.001152	
0.382699	0.641564	0.001152	
0.382699	0.641564	0.001152	
0.382699	0.641564	0.001152	
0.382699	0.641564	0.001152	
0.382699	0.641564	0.001152	
0.382699	0.641564	0.001152	
0.382699	0.641564	0.001152	
0.382699	0.641564	0.001152	
0.382699	0.641564	0.001152	
0.382699	0.641564	0.001152	
0.382699	0.641564	0.001152	
0.382699	0.641564	0.001152	
0.382699	0.641564	0.001152	
0.382699	0.641564	0.001152	
0.382699	0.641564	0.001152	
0.382699	0.641564	0.001152	
0.382699	0.641564	0.001152	
0.382699	0.641564	0.001152	
0.382699	0.641564	0.001152	
0.382699	0.641564	0.001152	
0.382699	0.641564	0.001152	
0.382699	0.641564	0.001152	
0.382699	0.641564	0.001152	
0.382699	0.641564	0.001152	
0.382700	0.641564	0.001152	
0.382700	0.641565	0.001152	
0.382700	0.641565	0.001152	
0.382700	0.641565	0.001152	
0.382700	0.641565	0.001152	
0.382700	0.641565	0.001152	
0.382700	0.641565	0.001152	
0.382700	0.641565	0.001152	
0.382700	0.641565	0.001152	
0.382700	0.641565	0.001152	
0.382700	0.641565	0.001152	
0.382700	0.641565	0.001152	
0.382700	0.641565	0.001152	
0.382700	0.641565	0.001152	
0.382700	0.641565	0.001152	
0.382700	0.641565	0.001152	
0.382700	0.641565	0.001152	
0.382700	0.641565	0.001152	
0.382700	0.641565	0.001152	
0.382700	0.641565	0.001152	
0.382700	0.641565	0.001152	
0.382700	0.641565	0.001152	
0.382700	0.641565	0.001152	
0.382700	0.641565	0.001152	
0.382700	0.641565	0.001152	
0.382700	0.641565	0.001152	
0.382700	0.641565	0.001152	
0.382700	0.641565	0.001152	
0.382700	0.641565	0.001152	
0.382700	0.641565	0.001152	
0.382700	0.641565	0.001152	
0.382700	0.641565	0.001152	
0.382700	0.641565	0.001152	
0.382700	0.641565	0.001152	
0.382700	0.641565	0.001152	
0.382700	0.641565	0.001152	
0.382686	0.641559	0.001152	
0.229397	0.574137	0.001115	
0.215092	0.566299	0.001111	
0.215509	0.566533	0.001111	
0.221288	0.569743	0.001113	
0.248146	0.583854	0.001120	
0.261773	0.590573	0.001124	
0.263113	0.591219	0.001124	
0.263209	0.591266	0.001124	
0.263220	0.591271	0.001124	
0.263229	0.591275	0.001124	
0.263241	0.591281	0.001124	
0.263260	0.591290	0.001124	
0.263291	0.591305	0.001124	
0.263343	0.591330	0.001124	
0.263424	0.591369	0.001124	
0.263554	0.591432	0.001124	
0.263757	0.591529	0.001124	
0.264067	0.591678	0.001124	
0.264529	0.591900	0.001125	
0.265195	0.592219	0.001125	
0.266123	0.592663	0.001125	
0.267359	0.593252	0.001125	
0.268929	0.593997	0.001126	
0.270818	0.594890	0.001126	
0.272967	0.595901	0.001127	
0.275272	0.596978	0.001127	
0.277605	0.598062	0.001128	
0.279830	0.599089	0.001128	
0.281827	0.600006	0.001129	
0.283502	0.600772	0.001129	
0.284800	0.601363	0.001130	
0.285690	0.601767	0.001130	
0.286158	0.601979	0.001130	
0.286195	0.601996	0.001130	
0.285801	0.601818	0.001130	
0.284984	0.601447	0.001130	
0.283756	0.600888	0.001129	
0.282123	0.600141	0.001129	
0.280088	0.599208	0.001128	
0.277659	0.598087	0.001128	
0.274840	0.596776	0.001127	
0.271626	0.595271	0.001126	
0.268015	0.593564	0.001125	
0.264013	0.591652	0.001124	
0.259652	0.589545	0.001123	
0.255015	0.587274	0.001122	
0.250245	0.584907	0.001121	
0.245533	0.582534	0.001119	
0.241099	0.580270	0.001118	
0.237160	0.578231	0.001117	
0.233897	0.576523	0.001116	
0.231432	0.575220	0.001116	
0.229852	0.574379	0.001115	
0.229177	0.574019	0.001115	
0.229390	0.574132	0.001115	
0.230433	0.574689	0.001115	
0.232201	0.575628	0.001116	
0.234555	0.576869	0.001116	
0.237321	0.578315	0.001117	
0.240298	0.579857	0.001118	
0.243280	0.581387	0.001119	
0.246085	0.582814	0.001120	
0.248577	0.584071	0.001120	
0.250678	0.585123	0.001121	
0.252350	0.585956	0.001121	
0.253587	0.586569	0.001122	
0.254395	0.586968	0.001122	
0.254768	0.587153	0.001122	
0.254661	0.587100	0.001122	
0.253961	0.586754	0.001122	
0.252427	0.585994	0.001121	
0.249602	0.584585	0.001121	
0.244663	0.582092	0.001119	
0.236315	0.577790	0.001117	
0.223220	0.570800	0.001113	
0.205899	0.561043	0.001108	
0.188854	0.550776	0.001103	
0.177281	0.543366	0.001099	
0.171768	0.539696	0.001097	
0.169816	0.538372	0.001096	
0.169315	0.538031	0.001096	
0.169276	0.538004	0.001096	
0.169352	0.538056	0.001096	
0.169448	0.538122	0.001096	
0.169537	0.538183	0.001096	
0.169612	0.538233	0.001096	
0.169666	0.538270	0.001096	
0.169699	0.538293	0.001096	
0.169710	0.538300	0.001096	
0.169700	0.538294	0.001096	
0.169671	0.538274	0.001096	
0.169627	0.538244	0.001096	
0.169571	0.538206	0.001096	
0.169506	0.538161	0.001096	
0.169438	0.538115	0.001096	
0.169370	0.538068	0.001096	
0.169305	0.538024	0.001096	
0.169246	0.537984	0.001096	
0.169196	0.537950	0.001096	
0.169157	0.537923	0.001096	
0.169131	0.537905	0.001096	
0.169120	0.537898	0.001096	
0.169126	0.537902	0.001096	
0.169152	0.537920	0.001096	
0.169201	0.537953	0.001096	
0.169279	0.538006	0.001096	
0.169391	0.538083	0.001096	
0.169546	0.538188	0.001096	
0.169756	0.538332	0.001096	
0.170039	0.538524	0.001096	
0.170408	0.538776	0.001097	
0.170712	0.538981	0.001097	
0.166298	0.535956	0.001095	
0.080768	0.456942	0.001055	
0.016771	0.308753	0.000980	
0.015280	0.301008	0.000976	
0.015773	0.303636	0.000978	
0.016501	0.307395	0.000980	
0.017484	0.312259	0.000982	
0.018788	0.318367	0.000986	
0.020472	0.325753	0.000989	
0.022568	0.334264	0.000994	
0.025059	0.343545	0.000999	
0.027851	0.353059	0.001004	
0.030792	0.362238	0.001008	
0.033702	0.370605	0.001013	
0.036458	0.377977	0.001016	
0.039372	0.385261	0.001020	
0.045235	0.398605	0.001027	
0.065516	0.435393	0.001045	
0.102271	0.481925	0.001068	
0.123928	0.502826	0.001078	
0.131300	0.509222	0.001082	
0.133986	0.511476	0.001083	
0.135243	0.512518	0.001083	
0.135949	0.513099	0.001083	
0.136369	0.513444	0.001084	
0.136602	0.513635	0.001084	
0.136682	0.513700	0.001084	
0.136627	0.513655	0.001084	
0.136437	0.513499	0.001084	
0.136099	0.513222	0.001084	
0.135592	0.512806	0.001083	
0.134876	0.512215	0.001083	
0.133889	0.511396	0.001083	
0.132538	0.510266	0.001082	
0.130677	0.508694	0.001081	
0.128092	0.506478	0.001080	
0.124487	0.503323	0.001079	
0.119498	0.498824	0.001076	
0.112812	0.492532	0.001073	
0.104373	0.484113	0.001069	
0.094590	0.473578	0.001064	
0.084326	0.461447	0.001058	
0.074608	0.448707	0.001051	
0.066211	0.436468	0.001045	
0.059512	0.425684	0.001040	
0.054550	0.416989	0.001036	
0.051177	0.410672	0.001033	
0.049183	0.406766	0.001031	
0.048340	0.405074	0.001030	
0.048402	0.405199	0.001030	
0.049108	0.406617	0.001031	
0.050174	0.408726	0.001032	
0.051327	0.410961	0.001033	
0.052314	0.412842	0.001034	
0.052938	0.414015	0.001034	
0.053014	0.414155	0.001034	
0.052339	0.412889	0.001034	
0.050639	0.409633	0.001032	
0.047560	0.403484	0.001029	
0.042775	0.393203	0.001024	
0.036422	0.377884	0.001016	
0.029684	0.358872	0.001007	
0.024438	0.341307	0.000998	
0.021651	0.330624	0.000992	
0.020909	0.327587	0.000990	
0.021388	0.329559	0.000991	
0.022524	0.334090	0.000994	
0.024057	0.339911	0.000997	
0.025887	0.346459	0.001000	
0.027960	0.353415	0.001004	
0.030212	0.360489	0.001007	
0.032555	0.367383	0.001011	
0.034887	0.373836	0.001014	
0.037114	0.379658	0.001017	
0.039151	0.384726	0.001020	
0.040946	0.389005	0.001022	
0.042479	0.392533	0.001024	
0.043755	0.395386	0.001025	
0.044793	0.397654	0.001026	
0.045624	0.399437	0.001027	
0.046272	0.400807	0.001028	
0.046739	0.401784	0.001028	
0.046893	0.402105	0.001028	
0.046027	0.400292	0.001027	
0.041863	0.391130	0.001023	
0.032988	0.368611	0.001012	
0.025631	0.345567	0.001000	
0.022677	0.334686	0.000994	
0.021738	0.330977	0.000992	
0.021405	0.329627	0.000992	
0.021228	0.328904	0.000991	
0.021074	0.328270	0.000991	
0.020895	0.327529	0.000990	
0.020671	0.326592	0.000990	
0.020385	0.325385	0.000989	
0.020022	0.323833	0.000988	
0.019568	0.321855	0.000987	
0.019008	0.319365	0.000986	
0.018332	0.316276	0.000984	
0.017539	0.312524	0.000982	
0.016637	0.308083	0.000980	
0.015648	0.302977	0.000977	
0.014607	0.297305	0.000974	
0.013559	0.291247	0.000971	
0.012551	0.285042	0.000968	
0.011622	0.278953	0.000964	
0.010799	0.273223	0.000961	
0.010096	0.268032	0.000958	
0.009510	0.263484	0.000955	
0.009032	0.259595	0.000953	
0.008644	0.256321	0.000951	
0.008332	0.253597	0.000950	
0.008084	0.251383	0.000948	
0.007896	0.249658	0.000947	
0.007765	0.248441	0.000947	
0.007689	0.247729	0.000946	
0.007666	0.247506	0.000946	
0.007690	0.247738	0.000946	
0.007759	0.248381	0.000947	
0.007868	0.249401	0.000947	
0.008017	0.250773	0.000948	
0.008204	0.252462	0.000949	
0.008428	0.254449	0.000950	
0.008688	0.256695	0.000952	
0.008978	0.259147	0.000953	
0.009294	0.261746	0.000954	
0.009629	0.264426	0.000956	
0.009975	0.267109	0.000958	
0.010321	0.269721	0.000959	
0.010656	0.272188	0.000960	
0.010970	0.274443	0.000962	
0.011253	0.276425	0.000963	
0.011495	0.278092	0.000964	
0.011689	0.279405	0.000964	
0.011829	0.280346	0.000965	
0.011912	0.280896	0.000965	
0.011934	0.281041	0.000965	
0.011896	0.280789	0.000965	
0.011798	0.280141	0.000965	
0.011645	0.279113	0.000964	
0.011439	0.277710	0.000964	
0.011186	0.275963	0.000963	
0.010894	0.273903	0.000961	
0.010571	0.271568	0.000960	
0.010226	0.269013	0.000959	
0.009866	0.266274	0.000957	
0.009502	0.263418	0.000955	
0.009141	0.260495	0.000954	
0.008791	0.257573	0.000952	
0.008458	0.254707	0.000950	
0.008146	0.251939	0.000949	
0.007858	0.249310	0.000947	
0.007596	0.246845	0.000946	
0.007359	0.244558	0.000944	
0.007147	0.242463	0.000943	
0.006959	0.240565	0.000942	
0.006794	0.238857	0.000941	
0.006648	0.237326	0.000940	
0.006519	0.235956	0.000939	
0.006406	0.234733	0.000939	
0.006307	0.233646	0.000938	
0.006220	0.232681	0.000937	
0.006144	0.231823	0.000937	
0.006076	0.231056	0.000936	
0.006016	0.230369	0.000936	
0.005962	0.229752	0.000935	
0.005914	0.229194	0.000935	
0.005870	0.228684	0.000935	
0.005830	0.228219	0.000935	
0.005794	0.227787	0.000934	
0.005760	0.227387	0.000934	
0.005728	0.227010	0.000934	
0.005698	0.226654	0.000934	
0.005670	0.226316	0.000933	
0.005643	0.225994	0.000933	
0.005618	0.225684	0.000933	
0.005593	0.225387	0.000933	
0.005569	0.225099	0.000933	
0.005547	0.224823	0.000932	
0.005525	0.224557	0.000932	
0.005504	0.224303	0.000932	
0.005485	0.224061	0.000932	
0.005466	0.223829	0.000932	
0.005448	0.223609	0.000932	
0.005431	0.223402	0.000932	
0.005416	0.223207	0.000931	
0.005401	0.223024	0.000931	
0.005387	0.222855	0.000931	
0.005375	0.222697	0.000931	
0.005363	0.222551	0.000931	
0.005352	0.222415	0.000931	
0.005342	0.222288	0.000931	
0.005333	0.222172	0.000931	
0.005324	0.222062	0.000931	
0.005316	0.221960	0.000931	
0.005308	0.221864	0.000931	
0.005301	0.221773	0.000931	
0.005294	0.221685	0.000930	
0.005287	0.221599	0.000930	
0.005281	0.221513	0.000930	
0.005274	0.221426	0.000930	
0.005267	0.221336	0.000930	
0.005259	0.221238	0.000930	
0.005250	0.221128	0.000930	
0.005240	0.220993	0.000930	
0.005226	0.220814	0.000930	
0.005205	0.220548	0.000930	
0.005171	0.220111	0.000929	
0.005111	0.219330	0.000929	
0.004999	0.217858	0.000928	
0.004789	0.215044	0.000926	
0.004418	0.209797	0.000923	
0.003830	0.200770	0.000917	
0.003077	0.187493	0.000908	
0.002351	0.172131	0.000897	
0.001830	0.158754	0.000887	
0.001531	0.149735	0.000880	
0.001379	0.144649	0.000876	
0.001305	0.142058	0.000874	
0.001271	0.140794	0.000872	
0.001254	0.140175	0.000872	
0.001245	0.139853	0.000872	
0.001240	0.139664	0.000872	
0.001237	0.139530	0.000871	
0.001234	0.139416	0.000871	
0.001231	0.139307	0.000871	
0.001228	0.139192	0.000871	
0.001225	0.139068	0.000871	
0.001221	0.138931	0.000871	
0.001217	0.138775	0.000871	
0.001212	0.138601	0.000871	
0.001207	0.138403	0.000870	
0.001201	0.138178	0.000870	
0.001194	0.137920	0.000870	
0.001187	0.137625	0.000870	
0.001178	0.137285	0.000870	
0.001168	0.136895	0.000869	
0.001157	0.136448	0.000869	
0.001144	0.135934	0.000868	
0.001129	0.135344	0.000868	
0.001112	0.134666	0.000867	
0.001093	0.133889	0.000867	
0.001072	0.133002	0.000866	
0.001047	0.131991	0.000865	
0.001021	0.130844	0.000864	
0.000991	0.129547	0.000863	
0.000958	0.128086	0.000861	
0.000922	0.126451	0.000860	
0.000884	0.124636	0.000858	
0.000842	0.122635	0.000856	
0.000799	0.120449	0.000854	
0.000754	0.118084	0.000852	
0.000708	0.115559	0.000850	
0.000661	0.112899	0.000847	
0.000615	0.110131	0.000844	
0.000570	0.107297	0.000842	
0.000527	0.104445	0.000839	
0.000487	0.101619	0.000836	
0.000450	0.098876	0.000833	
0.000417	0.096258	0.000830	
0.000387	0.093800	0.000827	
0.000361	0.091530	0.000824	
0.000339	0.089470	0.000822	
0.000319	0.087628	0.000820	
0.000303	0.086003	0.000818	
0.000289	0.084588	0.000816	
0.000277	0.083370	0.000815	
0.000268	0.082334	0.000813	
0.000260	0.081461	0.000812	
0.000253	0.080730	0.000811	
0.000248	0.080124	0.000811	
0.000243	0.079625	0.000810	
0.000240	0.079215	0.000809	
0.000237	0.078881	0.000809	
0.000235	0.078610	0.000809	
0.000233	0.078391	0.000808	
0.000232	0.078214	0.000808	
0.000230	0.078072	0.000808	
0.000229	0.077959	0.000808	
0.000229	0.077868	0.000808	
0.000228	0.077795	0.000808	
0.000228	0.077737	0.000808	
0.000227	0.077690	0.000807	
0.000227	0.077653	0.000807	
0.000227	0.077624	0.000807	
0.000226	0.077601	0.000807	
0.000226	0.077582	0.000807	
0.000226	0.077567	0.000807	
0.000226	0.077556	0.000807	
0.000226	0.077546	0.000807	
0.000226	0.077539	0.000807	
0.000226	0.077533	0.000807	
0.000226	0.077529	0.000807	
0.000226	0.077525	0.000807	
0.000226	0.077522	0.000807	
0.000226	0.077519	0.000807	
0.000226	0.077518	0.000807	
0.000226	0.077516	0.000807	
0.000226	0.077515	0.000807	
0.000226	0.077513	0.000807	
0.000226	0.077512	0.000807	
0.000226	0.077511	0.000807	
0.000226	0.077511	0.000807	
0.000226	0.077510	0.000807	
0.000226	0.077509	0.000807	
0.000226	0.077508	0.000807	
0.000226	0.077508	0.000807	
0.000226	0.077507	0.000807	
0.000226	0.077507	0.000807	
0.000226	0.077507	0.000807	
0.000226	0.077506	0.000807	
0.000226	0.077506	0.000807	
0.000226	0.077505	0.000807	
0.000226	0.077505	0.000807	
0.000226	0.077505	0.000807	
0.000225	0.077407	0.000807	
0.000097	0.057180	0.000777	
0.000072	0.051285	0.000767	
0.000072	0.051285	0.000767	
0.000072	0.051285	0.000767	
0.000072	0.051285	0.000767	
0.000072	0.051285	0.000767	
0.000072	0.051285	0.000767	
0.000072	0.051285	0.000767	
0.000072	0.051285	0.000767	
0.000072	0.051285	0.000767	
0.000072	0.051285	0.000767	
0.000072	0.051285	0.000767	
0.000072	0.051285	0.000767	
0.000072	0.051285	0.000767	
0.000072	0.051285	0.000767	
0.000072	0.051285	0.000767	
0.000072	0.051285	0.000767	
0.000072	0.051285	0.000767	
0.000072	0.051285	0.000767	
0.000072	0.051285	0.000767	
0.000072	0.051285	0.000767	
0.000072	0.051285	0.000767	
0.000072	0.051285	0.000767	
0.000072	0.051285	0.000767	
0.000072	0.051285	0.000767	
0.000072	0.051285	0.000767	
0.000072	0.051285	0.000767	
0.000072	0.051285	0.000767	
0.000072	0.051285	0.000767	
0.000072	0.051285	0.000767	
0.000072	0.051285	0.000767	
0.000072	0.051285	0.000767	
0.000072	0.051285	0.000767	
0.000072	0.051285	0.000767	
0.000072	0.051285	0.000767	
0.000072	0.051285	0.000767	
0.000072	0.051285	0.000767	
0.000072	0.051285	0.000767	
0.000072	0.051285	0.000767	
0.000072	0.051285	0.000767	
0.000072	0.051285	0.000767	
0.000072	0.051285	0.000767	
0.000072	0.051285	0.000767	
0.000072	0.051285	0.000767	
0.000072	0.051285	0.000767	
0.000072	0.051285	0.000767	
0.000072	0.051285	0.000767	
0.000072	0.051285	0.000767	
0.000072	0.051285	0.000767	
0.000072	0.051285	0.000767	
0.000072	0.051285	0.000767	
0.000072	0.051285	0.000767	
0.000072	0.051285	0.000767	
0.000072	0.051285	0.000767	
0.000072	0.051285	0.000767	
0.000072	0.051285	0.000767	
0.000072	0.051285	0.000767	
0.000072	0.051285	0.000767	
0.000072	0.051285	0.000767	
0.000072	0.051285	0.000767	
0.000072	0.051285	0.000767	
0.000072	0.051285	0.000767	
0.000072	0.051285	0.000767	
0.000072	0.051285	0.000767	
0.000072	0.051285	0.000767	
0.000072	0.051285	0.000767	
0.000072	0.051285	0.000767	
0.000072	0.051285	0.000767	
0.000072	0.051285	0.000767	
0.000072	0.051285	0.000767	
0.000072	0.051285	0.000767	
0.000072	0.051285	0.000767	
0.000072	0.051285	0.000767	
0.000072	0.051285	0.000767	
0.000072	0.051285	0.000767	
0.000072	0.051285	0.000767	
0.000072	0.051285	0.000767	
0.000072	0.051285	0.000767	
0.000072	0.051285	0.000767	
0.000072	0.051285	0.000767	
0.000072	0.051285	0.000767	
0.000072	0.051285	0.000767	
0.000072	0.051285	0.000767	
0.000072	0.051285	0.000767	
0.000072	0.051285	0.000767	
0.000072	0.051285	0.000767	
0.000072	0.051285	0.000767	
0.000072	0.051285	0.000767	
0.000072	0.051285	0.000767	
0.000072	0.051285	0.000767	
0.000072	0.051285	0.000767	
0.000072	0.051285	0.000767	
0.000072	0.051285	0.000767	
0.000072	0.051285	0.000767	
0.000072	0.051285	0.000767	
0.000072	0.051285	0.000767	
0.000072	0.051285	0.000767	
0.000072	0.051285	0.000767	
0.000072	0.051285	0.000767	
0.000072	0.051285	0.000767	
0.000072	0.051285	0.000767	
0.000072	0.051285	0.000767	
0.000072	0.051285	0.000767	
0.000072	0.051285	0.000767	
0.000072	0.051285	0.000767	
0.000072	0.051285	0.000767	
0.000072	0.051285	0.000767	
0.000072	0.051285	0.000767	
0.000072	0.051285	0.000767	
0.000072	0.051285	0.000767	
0.000072	0.051285	0.000767	
0.000072	0.051285	0.000767	
0.000072	0.051285	0.000767	
0.000072	0.051285	0.000767	
0.000072	0.051285	0.000767	
0.000072	0.051285	0.000767	
0.000072	0.051285	0.000767	
0.000072	0.051285	0.000767	
0.000072	0.051285	0.000767	
0.000072	0.051285	0.000767	
0.000072	0.051285	0.000767	
0.000072	0.051285	0.000767	
0.000072	0.051285	0.000767	
0.000072	0.051285	0.000767	
0.000072	0.051285	0.000767	
0.000072	0.051285	0.000767	
0.000072	0.051285	0.000767	
0.000072	0.051285	0.000767	
0.000072	0.051285	0.000767	
0.000072	0.051285	0.000767	
0.000072	0.051285	0.000767	
0.000072	0.051285	0.000767	
0.000072	0.051285	0.000767	
0.000072	0.051285	0.000767	
0.000072	0.051285	0.000767	
0.000072	0.051285	0.000767	
0.000072	0.051285	0.000767	
0.000072	0.051285	0.000767	
0.000072	0.051285	0.000767	
0.000072	0.051285	0.000767	
0.000072	0.051285	0.000767	
0.000072	0.051285	0.000767	
0.000072	0.051285	0.000767	
0.000072	0.051285	0.000767	
0.000072	0.051285	0.000767	
0.000072	0.051285	0.000767	
0.000072	0.051285	0.000767	
0.000072	0.051285	0.000767	
0.000072	0.051285	0.000767	
0.000072	0.051285	0.000767	
0.000072	0.051285	0.000767	
0.000072	0.051285	0.000767	
0.000072	0.051285	0.000767	
0.000072	0.051285	0.000767	
0.000072	0.051285	0.000767	
0.000072	0.051285	0.000767	
0.000072	0.051285	0.000767	
0.000072	0.051285	0.000767	
0.000072	0.051285	0.000767	
0.000072	0.051285	0.000767	
0.000072	0.051285	0.000767	
0.000072	0.051285	0.000767	
0.000072	0.051285	0.000767	
0.000072	0.051285	0.000767	
0.000072	0.051285	0.000767	
0.000072	0.051285	0.000767	
0.000072	0.051285	0.000767	
0.000072	0.051285	0.000767	
0.000072	0.051285	0.000767	
0.000072	0.051285	0.000767	
0.000072	0.051285	0.000767	
0.000072	0.051285	0.000767	
0.000072	0.051285	0.000767	
0.000072	0.051285	0.000767	
0.000072	0.051285	0.000767	
0.000072	0.051285	0.000767	
0.000072	0.051285	0.000767	
0.000072	0.051285	0.000767	
0.000072	0.051285	0.000767	
0.000072	0.051285	0.000767	
0.000072	0.051285	0.000767	
0.000072	0.051285	0.000767	
0.000072	0.051285	0.000767	
0.000072	0.051285	0.000767	
0.000072	0.051285	0.000767	
0.000072	0.051285	0.000767	
0.000072	0.051285	0.000767	
0.000072	0.051285	0.000767	
0.000072	0.051285	0.000767	
0.000072	0.051285	0.000767	
0.000072	0.051285	0.000767	
0.000072	0.051285	0.000767	
0.000072	0.051285	0.000767	
0.000072	0.051285	0.000767	
0.000072	0.051285	0.000767	
0.000072	0.051285	0.000767	
0.000072	0.051285	0.000767	
0.000072	0.051285	0.000767	
0.000072	0.051285	0.000767	
0.000072	0.051285	0.000767	
0.000072	0.051285	0.000767	
0.000072	0.051285	0.000767	
0.000072	0.051285	0.000767	
0.000072	0.051285	0.000767	
0.000072	0.051285	0.000767	
0.000072	0.051285	0.000767	
0.000072	0.051285	0.000767	
0.000072	0.051285	0.000767	
0.000072	0.051285	0.000767	
0.000072	0.051285	0.000767	
0.000072	0.051285	0.000767	
0.000072	0.051285	0.000767	
0.000072	0.051285	0.000767	
0.000072	0.051285	0.000767	
0.000072	0.051285	0.000767	
0.000072	0.051285	0.000767	
0.000072	0.051285	0.000767	
0.000072	0.051285	0.000767	
0.000072	0.051285	0.000767	
0.000072	0.051285	0.000767	
0.000072	0.051285	0.000767	
0.000072	0.051285	0.000767	
0.000072	0.051285	0.000767	
0.000072	0.051285	0.000767	
0.000072	0.051285	0.000767	
0.000072	0.051285	0.000767	
0.000072	0.051285	0.000767	
0.000072	0.051285	0.000767	
0.000072	0.051285	0.000767	
0.000072	0.051285	0.000767	
0.000072	0.051285	0.000767	
0.000072	0.051285	0.000767	
0.000072	0.051285	0.000767	
0.000072	0.051285	0.000767	
0.000072	0.051285	0.000767	
0.000072	0.051285	0.000767	
0.000072	0.051285	0.000767	
0.000072	0.051285	0.000767	
0.000072	0.051285	0.000767	
0.000072	0.051285	0.000767	
0.000072	0.051285	0.000767	
0.000072	0.051285	0.000767	
0.000072	0.051285	0.000767	
0.000072	0.051285	0.000767	
0.000072	0.051285	0.000767	
0.000072	0.051285	0.000767	
0.000072	0.051285	0.000767	
0.000072	0.051285	0.000767	
0.000072	0.051285	0.000767	
0.000072	0.051285	0.000767	
0.000072	0.051285	0.000767	
0.000072	0.051285	0.000767	
0.000072	0.051285	0.000767	
0.000072	0.051285	0.000767	
0.000072	0.051285	0.000767	
0.000072	0.051285	0.000767	
0.000072	0.051285	0.000767	
0.000072	0.051285	0.000767	
0.000072	0.051285	0.000767	
0.000072	0.051285	0.000767	
0.000072	0.051285	0.000767	
0.000072	0.051285	0.000767	
0.000072	0.051285	0.000767	
0.000072	0.051285	0.000767	
0.000072	0.051285	0.000767	
0.000072	0.051285	0.000767	
0.000072	0.051285	0.000767	
0.000072	0.051285	0.000767	
0.000072	0.051285	0.000767	
0.000072	0.051285	0.000767	
0.000072	0.051285	0.000767	
0.000072	0.051285	0.000767	
0.000072	0.051285	0.000767	
0.000072	0.051285	0.000767	
0.000072	0.051285	0.000767	
0.000072	0.051285	0.000767	
0.000072	0.051285	0.000767	
0.000072	0.051285	0.000767	
0.000072	0.051285	0.000767	
0.000072	0.051285	0.000767	
0.000072	0.051285	0.000767	
0.000072	0.051285	0.000767	
0.000072	0.051285	0.000767	
0.000072	0.051285	0.000767	
0.000072	0.051285	0.000767	
0.000072	0.051285	0.000767	
0.000072	0.051285	0.000767	
0.000072	0.051285	0.000767	
0.000072	0.051285	0.000767	
0.000072	0.051285	0.000767	
0.000072	0.051285	0.000767	
0.000072	0.051285	0.000767	
0.000072	0.051285	0.000767	
0.000072	0.051285	0.000767	
0.000072	0.051285	0.000767	
0.000072	0.051285	0.000767	
0.000072	0.051285	0.000767	
0.000072	0.051285	0.000767	
0.000072	0.051285	0.000767	
0.000072	0.051285	0.000767	
0.000072	0.051285	0.000767	
0.000072	0.051285	0.000767	
0.000072	0.051285	0.000767	
0.000072	0.051285	0.000767	
0.000072	0.051285	0.000767	
0.000072	0.051285	0.000767	
0.000158	0.068179	0.000794	
0.025330	0.344508	0.000999	
0.027397	0.351571	0.001003	
0.027964	0.353429	0.001004	
0.028203	0.354201	0.001004	
0.028303	0.354523	0.001004	
0.028345	0.354659	0.001004	
0.028363	0.354716	0.001004	
0.028371	0.354742	0.001004	
0.028374	0.354753	0.001004	
0.028376	0.354758	0.001004	
0.028377	0.354760	0.001004	
0.028377	0.354761	0.001004	
0.028377	0.354762	0.001004	
0.028377	0.354762	0.001004	
0.028377	0.354762	0.001004	
0.028377	0.354761	0.001004	
0.028377	0.354761	0.001004	
0.028377	0.354761	0.001004	
0.028377	0.354761	0.001004	
0.028377	0.354761	0.001004	
0.028377	0.354761	0.001004	
0.028377	0.354761	0.001004	
0.028377	0.354761	0.001004	
0.028377	0.354761	0.001004	
0.028377	0.354761	0.001004	
0.028377	0.354761	0.001004	
0.028377	0.354761	0.001004	
0.028377	0.354761	0.001004	
0.028377	0.354761	0.001004	
0.028377	0.354761	0.001004	
0.028377	0.354761	0.001004	
0.028377	0.354760	0.001004	
0.028377	0.354760	0.001004	
0.028377	0.354760	0.001004	
0.028377	0.354760	0.001004	
0.028376	0.354758	0.001004	
0.028376	0.354758	0.001004	
0.028376	0.354758	0.001004	
0.028376	0.354757	0.001004	
0.028375	0.354756	0.001004	
0.028374	0.354753	0.001004	
0.028374	0.354750	0.001004	
0.028372	0.354746	0.001004	
0.028371	0.354742	0.001004	
0.028369	0.354736	0.001004	
0.028367	0.354730	0.001004	
0.028365	0.354721	0.001004	
0.028362	0.354712	0.001004	
0.028358	0.354701	0.001004	
0.028354	0.354687	0.001004	
0.028350	0.354673	0.001004	
0.028345	0.354657	0.001004	
0.028339	0.354641	0.001004	
0.028334	0.354622	0.001004	
0.028328	0.354603	0.001004	
0.028321	0.354582	0.001004	
0.028316	0.354564	0.001004	
0.028310	0.354545	0.001004	
0.028305	0.354529	0.001004	
0.028300	0.354515	0.001004	
0.028297	0.354504	0.001004	
0.028294	0.354496	0.001004	
0.028294	0.354493	0.001004	
0.028294	0.354496	0.001004	
0.028297	0.354503	0.001004	
0.028300	0.354515	0.001004	
0.028306	0.354533	0.001004	
0.028312	0.354552	0.001004	
0.028319	0.354575	0.001004	
0.028327	0.354600	0.001004	
0.028334	0.354624	0.001004	
0.028342	0.354648	0.001004	
0.028349	0.354671	0.001004	
0.028355	0.354690	0.001004	
0.029543	0.358437	0.001006	
0.382699	0.641564	0.001152	
0.382699	0.641564	0.001152	
0.382699	0.641564	0.001152	
0.382699	0.641564	0.001152	
0.382699	0.641564	0.001152	
0.382699	0.641564	0.001152	
0.382699	0.641564	0.001152	
0.382699	0.641564	0.001152	
0.382699	0.641564	0.001152	
0.382699	0.641564	0.001152	
0.382699	0.641564	0.001152	
0.382699	0.641564	0.001152	
0.382699	0.641564	0.001152	
0.382699	0.641564	0.001152	
0.382699	0.641564	0.001152	
0.382699	0.641564	0.001152	
0.382699	0.641564	0.001152	
0.382699	0.641564	0.001152	
0.382699	0.641564	0.001152	
0.382699	0.641564	0.001152	
0.382699	0.641564	0.001152	
0.382699	0.641564	0.001152	
0.382699	0.641564	0.001152	
0.382699	0.641564	0.001152	
0.382699	0.641564	0.001152	
0.382699	0.641564	0.001152	
0.382699	0.641564	0.001152	
0.382699	0.641564	0.001152	
0.382699	0.641564	0.001152	
0.382699	0.641564	0.001152	
0.382699	0.641564	0.001152	
0.382699	0.641564	0.001152	
0.382699	0.641564	0.001152	
0.382699	0.641564	0.001152	
0.382699	0.641564	0.001152	
0.382699	0.641564	0.001152	
0.382699	0.641564	0.001152	
0.382699	0.641564	0.001152	
0.382699	0.641564	0.001152	
0.382699	0.641564	0.001152	
0.382699	0.641564	0.001152	
0.382699	0.641564	0.001152	
0.382699	0.641564	0.001152	
0.382699	0.641564	0.001152	
0.382699	0.641564	0.001152	
0.382699	0.641564	0.001152	
0.382699	0.641564	0.001152	
0.382699	0.641564	0.001152	
0.382699	0.641564	0.001152	
0.382699	0.641564	0.001152	
0.382699	0.641564	0.001152	
0.382699	0.641564	0.001152	
0.382699	0.641564	0.001152	
0.382700	0.641565	0.001152	
0.382700	0.641565	0.001152	
0.382700	0.641565	0.001152	
0.382700	0.641565	0.001152	
0.382700	0.641565	0.001152	
0.382700	0.641565	0.001152	
0.382700	0.641565	0.001152	
0.382700	0.641565	0.001152	
0.382700	0.641565	0.001152	
0.382700	0.641565	0.001152	
0.382700	0.641565	0.001152	
0.382700	0.641565	0.001152	
0.382700	0.641565	0.001152	
0.382700	0.641565	0.001152	
0.382700	0.641565	0.001152	
0.382700	0.641565	0.001152	
0.382700	0.641565	0.001152	
0.382700	0.641565	0.001152	
0.382700	0.641565	0.001152	
0.382700	0.641565	0.001152	
0.382700	0.641565	0.001152	
0.382700	0.641565	0.001152	
0.382700	0.641565	0.001152	
0.382700	0.641565	0.001152	
0.382700	0.641565	0.001152	
0.382700	0.641565	0.001152	
0.382700	0.641565	0.001152	
0.382700	0.641565	0.001152	
0.382700	0.641565	0.001152	
0.382700	0.641565	0.001152	
0.382700	0.641565	0.001152	
0.382699	0.641564	0.001152	
0.252269	0.585916	0.001121	
0.215101	0.566304	0.001111	
0.215006	0.566251	0.001111	
0.215007	0.566251	0.001111	
0.215008	0.566252	0.001111	
0.215009	0.566252	0.001111	
0.215014	0.566255	0.001111	
0.215055	0.566278	0.001111	
0.215528	0.566544	0.001111	
0.220535	0.569328	0.001112	
0.244158	0.581835	0.001119	
0.260625	0.590017	0.001123	
0.263010	0.591170	0.001124	
0.263272	0.591296	0.001124	
0.263345	0.591331	0.001124	
0.263428	0.591371	0.001124	
0.263554	0.591432	0.001124	
0.263750	0.591526	0.001124	
0.264045	0.591668	0.001124	
0.264481	0.591877	0.001124	
0.265098	0.592172	0.001125	
0.265942	0.592576	0.001125	
0.267028	0.593094	0.001125	
0.268330	0.593713	0.001125	
0.269737	0.594380	0.001126	
0.271029	0.594990	0.001126	
0.271866	0.595384	0.001126	
0.271794	0.595350	0.001126	
0.270297	0.594645	0.001126	
0.266930	0.593047	0.001125	
0.261493	0.590437	0.001124	
0.254249	0.586896	0.001122	
0.245929	0.582734	0.001120	
0.237485	0.578401	0.001117	
0.229702	0.574299	0.001115	
0.222937	0.570646	0.001113	
0.217153	0.567453	0.001111	
