0	0
0	0
0	0
0	0
0	0
0	0
0	0
0	0
0	0
0	0
0	0
0	0
0	0
0	0
0	0
0	0
0	0
0	0
0	0
0	0
0	0
0	0
0	0
0	0
0	0
0	0
0	0
0	0
0	0
0	0
0	0
0	0
0	0
0	0
0	0
0	0
0	0
0	0
0	0
0	0
0	0
0	0
0	0
0	0
0	0
0	0
0	0
0	0
0	0
0	0
0	0
0	0
0	0
0	0
0	0
0	0
0	0
0	0
0	0
0	0
0	0
0	0
0	0
0	0
0	0
0	0
0	0
0	0
0	0
0	0
0	0
0	0
0	0
0	0
0	0
0	0
0	0
0	0
0	0
0	0
0	0
0	0
0	0
0	0
0	0
0	0
0	0
0	0
0	0
0	0
0	0
0	0
0	0
0	0
0	0
0	0
0	0
0	0
0	0
0	0
0	0
0	0
0	0
0	0
0	0
0	0
0	0
0	0
0	0
0	0
0	0
0	0
0	0
0	0
0	0
0	0
0	0
0	0
0	0
0	0
0	0
0	0
0	0
0	0
0	0
0	0
0	0
0	0
0	0
0	0
0	0
0	0
0	0
0	0
0	0
0	0
0	0
0	0
0	0
0	0
0	0
0	0
0	0
0	0
0	0
0	0
0	0
0	0
0	0
0	0
0	0
0	0
0	0
0	0
0	0
0	0
0	0
0	0
0	0
0	0
0	0
0	0
0	0
0	0
0	0
0	0
0	0
0	0
0	0
0	0
0	0
0	0
0	0
0	0
0	0
0	0
0	0
0	0
0	0
0	0
0	0
0	0
0	0
0	0
0	0
0	0
0	0
0	0
0	0
0	0
0	0
0	0
0	0
0	0
0	0
0	0
0	0
0	0
0	0
0	0
0	0
0	0
0	0
0	0
0	0
0	0
0	0
0	0
0	0
0	0
0	0
0	0
0	0
0	0
0	0
0	0
0	0
0	0
0	0
0	0
0	0
0	0
0	0
0	0
0	0
0	0
0	0
0	0
0	0
0	0
0	0
0	0
0	0
0	0
0	0
0	0
0	0
0	0
0	0
0	0
0	0
0	0
0	0
0	0
0	0
0	0
0	0
0	0
0	0
0	0
0	0
0	0
0	0
0	0
0	0
0	0
0	0
0	0
0	0
0	0
0	0
0	0
0	0
0	0
0	0
0	0
0	0
0	0
0	0
0	0
0	0
0	0
0	0
0	0
0	0
0	0
0	0
0	0
0	0
0	0
0	0
0	0
0	0
0	0
0	0
0	0
0	0
0	0
0	0
0	0
0	0
0	0
0	0
0	0
0	0
0	0
0	0
0	0
0	0
0	0
0	0
0	0
0	0
0	0
0	0
0	0
0	0
0	0
0	0
0	0
0	0
0	0
0	0
0	0
0	0
0	0
0	0
0	0
0	0
0	0
0	0
0	0
0	0
0	0
0	0
0	0
0	0
0	0
0	0
0	0
0	0
0	0
0	0
0	0
0	0
0	0
0	0
0	0
0	0
0	0
0	0
0	0
0	0
0	0
0	0
0	0
0	0
0	0
0	0
0	0
0	0
0	0
0	0
0	0
0	0
0	0
0	0
0	0
0	0
0	0
0	0
0	0
0	0
0	0
0	0
0	0
0	0
0	0
0	0
0	0
0	0
0	0
0	0
0	0
0	0
0	0
0	0
0	0
0	0
0	0
0	0
0	0
0	0
0	0
0	0
0	0
0	0
0	0
0	0
0	0
0	0
0	0
0	0
0	0
0	0
0	0
0	0
0	0
0	0
0	0
0	0
0	0
0	0
0	0
0	0
0	0
0	0
0	0
0	0
0	0
0	0
0	0
0	0
0	0
0	0
0	0
0	0
0	0
0	0
0	0
0	0
0	0
0	0
0	0
0	0
0	0
0	0
0	0
0	0
0	0
0	0
0	0
0	0
0	0
0	0
0	0
0	0
0	0
0	0
0	0
0	0
0	0
0	0
0	0
0	0
0	0
0	0
0	0
0	0
0	0
0	0
0	0
0	0
0	0
0	0
0	0
0	0
0	0
0	0
0	0
0	0
0	0
0	0
0	0
0	0
0	0
0	0
0	0
0	0
0	0
0	0
0	0
0	0
0	0
0	0
0	0
0	0
0	0
0	0
0	0
0	0
0	0
0	0
0	0
0	0
0	0
0	0
0	0
0	0
0	0
0	0
0	0
0	0
0	0
0	0
0	0
0	0
0	0
0	0
0	0
0	0
0	0
0	0
0	0
0	0
0	0
0	0
0	0
0	0
0	0
0	0
0	0
0	0
0	0
0	0
0	0
0	0
0	0
0	0
0	0
0	0
0	0
0	0
0	0
0	0
0	0
0	0
0	0
0	0
0	0
0	0
0	0
0	0
0	0
0	0
0	0
0	0
0	0
0	0
0	0
0	0
0	0
0	0
0	0
0	0
0	0
0	0
0	0
0	0
0	0
0	0
0	0
0	0
0	0
0	0
0	0
0	0
0	0
0	0
0	0
0	0
0	0
0	0
0	0
0	0
0	0
0	0
0	0
0	0
0	0
0	0
0	0
0	0
0	0
0	0
0	0
0	0
0	0
0	0
0	0
0	0
0	0
0	0
0	0
0	0
0	0
0	0
0	0
0	0
0	0
0	0
0	0
0	0
0	0
0	0
0	0
0	0
0	0
0	0
0	0
0	0
0	0
0	0
0	0
0	0
0	0
0	0
0	0
0	0
0	0
0	0
0	0
0	0
0	0
0	0
0	0
0	0
0	0
0	0
0	0
0	0
0	0
0	0
0	0
0	0
0	0
0	0
0	0
0	0
0	0
0	0
0	0
0	0
0	0
0	0
0	0
0	0
0	0
0	0
0	0
0	0
0	0
0	0
0	0
0	0
0	0
0	0
0	0
0	0
0	0
0	0
0	0
0	0
0	0
0	0
0	0
0	0
0	0
0	0
0	0
0	0
0	0
0	0
0	0
0	0
0	0
0	0
0	0
0	0
0	0
0	0
0	0
0	0
0	0
0	0
0	0
0	0
0	0
0	0
0	0
0	0
0	0
0	0
0	0
0	0
0	0
0	0
0	0
0	0
0	0
0	0
0	0
0	0
0	0
0	0
0	0
0	0
0	0
0	0
0	0
0	0
0	0
0	0
0	0
0	0
0	0
0	0
0	0
0	0
0	0
0	0
0	0
0	0
0	0
0	0
0	0
0	0
0	0
0	0
0	0
0	0
0	0
0	0
0	0
0	0
0	0
0	0
0	0
0	0
0	0
0	0
0	0
0	0
0	0
0	0
0	0
0	0
0	0
0	0
0	0
0	0
0	0
0	0
0	0
0	0
0	0
0	0
0	0
0	0
0	0
0	0
0	0
0	0
0	0
0	0
0	0
0	0
0	0
0	0
0	0
0	0
0	0
0	0
0	0
0	0
0	0
0	0
0	0
0	0
0	0
0	0
0	0
0	0
0	0
0	0
0	0
0	0
0	0
0	0
0	0
0	0
0	0
0	0
0	0
0	0
0	0
0	0
0	0
0	0
0	0
0	0
0	0
0	0
0	0
0	0
0	0
0	0
0	0
0	0
0	0
0	0
0	0
0	0
0	0
0	0
0	0
0	0
0	0
0	0
0	0
0	0
0	0
0	0
0	0
0	0
0	0
0	0
0	0
0	0
0	0
0	0
0	0
0	0
0	0
0	0
0	0
0	0
0	0
0	0
0	0
0	0
0	0
0	0
0	0
0	0
0	0
0	0
0	0
0	0
0	0
0	0
0	0
0	0
0	0
0	0
0	0
0	0
0	0
0	0
0	0
0	0
0	0
0	0
0	0
0	0
0	0
0	0
0	0
0	0
0	0
0	0
0	0
0	0
0	0
0	0
0	0
0	0
0	0
0	0
0	0
0	0
0	0
0	0
0	0
0	0
0	0
0	0
0	0
0	0
0	0
0	0
0	0
0	0
0	0
0	0
0	0
0	0
0	0
0	0
0	0
0	0
0	0
0	0
0	0
0	0
0	0
0	0
0	0
0	0
0	0
0	0
0	0
0	0
0	0
0	0
0	0
0	0
0	0
0	0
0	0
0	0
0	0
0	0
0	0
0	0
0	0
0	0
0	0
0	0
0	0
0	0
0	0
0	0
0	0
0	0
0	0
0	0
0	0
0	0
0	0
0	0
0	0
0	0
0	0
0	0
0	0
0	0
0	0
0	0
0	0
0	0
0	0
0	0
0	0
0	0
0	0
0	0
0	0
0	0
0	0
0	0
0	0
0	0
0	0
0	0
0	0
0	0
0	0
0	0
0	0
0	0
0	0
0	0
0	0
0	0
0	0
0	0
0	0
0	0
0	0
0	0
0	0
0	0
0	0
0	0
0	0
0	0
0	0
0	0
0	0
0	0
0	0
0	0
0	0
0	0
0	0
0	0
0	0
0	0
0	0
0	0
0	0
0	0
0	0
0	0
0	0
0	0
0	0
0	0
0	0
0	0
0	0
0	0
0	0
0	0
0	0
0	0
0	0
0	0
0	0
0	0
0	0
0	0
0	0
0	0
0	0
0	0
0	0
0	0
0	0
0	0
0	0
0	0
0	0
3	22
3	44
3	66
3	89
3	111
3	134
3	156
3	178
3	201
3	223
3	223
3	224
3	224
3	224
3	224
3	224
3	224
3	225
3	225
3	225
3	225
3	225
3	225
3	225
3	226
3	226
3	226
3	226
3	226
3	226
3	226
3	227
3	227
3	227
3	227
3	227
3	227
3	227
3	228
3	228
3	228
3	228
3	228
3	228
3	228
3	229
3	229
3	229
3	229
3	229
3	229
3	229
3	230
3	230
3	230
3	230
3	230
3	230
3	230
3	231
3	231
3	231
3	231
3	231
3	231
3	231
3	231
3	231
3	232
3	232
3	232
3	232
3	232
3	232
3	232
3	232
3	233
3	233
3	233
3	233
3	233
3	233
3	233
3	233
3	233
3	234
3	234
3	234
3	234
3	234
3	234
3	234
3	234
3	234
3	235
3	235
3	235
3	235
3	235
3	235
3	235
3	235
3	235
3	236
3	236
3	236
3	236
3	236
3	236
3	236
3	236
3	236
3	236
3	237
3	237
3	237
3	237
3	237
3	237
3	237
3	237
3	237
3	237
3	238
3	238
3	238
3	238
3	238
3	238
3	238
3	238
3	238
3	238
3	238
3	239
3	239
3	239
3	239
3	239
3	239
3	239
3	239
3	239
3	239
3	239
3	240
3	240
3	240
3	240
3	240
3	240
3	240
3	240
3	240
3	240
3	240
3	240
3	241
3	241
3	241
3	241
3	241
3	241
3	241
3	241
3	241
3	241
3	241
3	241
3	241
3	242
3	242
3	242
3	242
3	242
3	242
3	242
3	242
3	242
3	242
3	242
3	242
3	242
3	242
3	243
3	243
3	243
3	243
3	243
3	243
3	243
3	243
3	243
3	243
3	243
3	243
3	243
3	243
3	244
3	244
3	244
3	244
3	244
3	244
3	244
3	244
3	244
3	244
3	244
3	244
3	244
3	244
3	244
3	244
3	245
3	245
3	245
3	245
3	245
3	245
3	245
3	245
3	245
3	245
3	245
3	245
3	245
3	245
3	245
3	245
3	246
3	246
3	246
3	246
3	246
3	246
3	246
3	246
3	246
3	246
3	246
3	246
3	246
3	246
3	246
3	246
3	246
3	246
3	247
3	247
3	247
3	247
3	247
3	247
3	247
3	247
3	247
3	247
3	247
3	247
3	247
3	247
3	247
3	247
3	247
3	247
3	247
3	247
3	248
3	248
3	248
3	248
3	248
3	248
3	248
3	248
3	248
3	248
3	248
3	248
3	248
3	248
3	248
3	248
3	248
3	248
3	248
3	248
3	248
3	248
3	249
3	249
3	249
3	249
3	249
3	249
3	249
3	249
3	249
3	249
3	249
3	249
3	249
3	249
3	249
3	249
3	249
3	249
3	249
3	249
3	249
3	249
3	249
3	249
3	249
3	250
3	250
3	250
3	250
3	250
3	250
3	250
3	250
3	250
3	250
3	250
3	250
3	250
3	250
3	250
3	250
3	250
3	250
3	250
3	250
3	250
3	250
3	250
3	250
3	250
3	250
3	250
3	250
3	251
3	251
3	251
3	251
3	251
3	251
3	251
3	251
3	251
3	251
3	251
3	251
3	251
3	251
3	251
3	251
3	251
3	251
3	251
3	251
3	251
3	251
3	251
3	251
3	251
3	251
3	251
3	251
3	251
3	251
3	251
3	251
3	252
3	252
3	252
3	252
3	252
3	252
3	252
3	252
3	252
3	252
3	252
3	252
3	252
3	252
3	252
3	252
3	252
3	252
3	252
3	252
3	252
3	252
3	252
3	252
3	252
3	252
3	252
3	252
3	252
3	252
3	252
3	252
3	252
3	252
3	252
3	252
3	252
3	252
3	252
3	253
3	253
3	253
3	253
3	253
3	253
3	253
3	253
3	253
3	253
3	253
3	253
3	253
3	253
2	253
2	253
2	253
2	253
2	253
2	253
2	253
2	253
2	253
2	253
2	253
2	253
2	253
2	253
2	253
2	253
2	253
2	253
2	253
2	253
3	253
3	253
3	253
3	253
3	253
3	253
4	253
4	253
4	253
4	253
5	253
5	254
5	254
5	254
5	254
6	254
6	254
6	254
6	254
6	254
6	254
7	254
7	254
7	254
7	254
7	254
7	254
6	254
6	254
6	254
6	254
6	254
5	254
5	254
5	254
5	254
4	254
4	254
4	254
4	254
3	254
3	254
3	254
3	254
2	254
2	254
2	254
2	254
2	254
1	254
1	254
1	254
1	254
1	254
1	254
1	254
1	254
1	254
1	254
1	254
1	254
1	254
1	254
2	254
26	251
30	248
34	246
37	243
41	240
45	237
47	235
51	232
52	229
56	227
58	227
60	227
60	227
62	227
64	227
64	227
64	227
64	227
64	228
64	228
64	228
64	228
64	228
64	228
64	228
62	228
62	228
62	228
62	228
60	228
60	228
60	229
60	229
60	229
58	229
58	229
58	229
58	229
58	229
58	229
58	229
58	229
58	229
58	229
58	230
58	230
58	230
58	230
60	230
60	230
60	230
62	230
62	230
62	230
64	230
64	230
66	230
66	231
68	231
69	231
69	231
71	231
71	231
73	231
73	231
75	231
75	231
77	231
77	231
79	232
79	232
79	232
81	232
81	232
81	232
83	232
83	232
83	232
83	232
83	232
83	232
83	233
83	233
83	233
85	233
85	233
85	233
85	233
85	233
85	233
85	233
85	233
83	233
83	233
83	233
83	233
83	233
83	233
83	233
83	234
83	234
83	234
85	234
85	234
85	234
85	234
85	234
85	234
86	234
86	234
86	234
88	234
88	234
90	234
90	234
90	235
92	235
94	235
94	235
96	235
96	235
98	235
98	235
100	235
100	235
102	235
102	235
103	235
103	235
105	235
105	236
105	236
107	236
107	236
109	236
109	236
111	236
111	236
113	236
113	236
115	236
115	236
117	236
117	236
119	236
120	236
120	236
122	236
124	237
124	237
126	237
128	237
130	237
130	237
132	237
134	237
134	237
136	237
136	237
137	237
137	237
139	237
139	238
139	238
141	238
141	238
141	238
143	238
143	238
143	238
143	238
145	239
145	239
145	239
147	239
147	239
147	239
149	239
149	239
149	239
151	239
151	239
153	239
153	240
154	240
154	240
154	240
156	240
156	240
156	240
158	240
158	240
158	240
158	241
158	241
158	241
158	241
158	241
158	241
156	241
156	241
156	241
156	241
154	242
154	242
154	242
153	242
153	242
151	242
151	242
149	242
149	242
147	243
147	243
145	243
145	243
143	243
141	243
141	243
139	243
137	243
136	244
134	244
132	244
130	244
128	244
126	244
124	244
120	244
119	244
117	244
113	244
111	244
109	245
105	245
103	245
102	245
98	245
96	245
94	245
92	245
88	245
86	245
85	245
83	246
81	246
79	246
77	246
75	246
73	246
71	246
69	246
68	246
66	246
64	246
62	247
60	247
58	247
54	247
52	247
51	247
49	247
47	247
45	247
41	247
39	247
37	247
35	247
34	247
32	248
30	248
28	248
26	248
26	248
24	248
24	248
22	248
22	248
20	248
20	248
20	248
20	248
20	249
20	249
20	249
20	249
20	249
20	249
20	249
20	249
20	249
20	249
20	249
20	249
20	249
20	249
20	249
20	249
18	249
18	250
18	250
17	250
17	250
17	250
17	250
15	250
15	250
15	250
15	250
13	250
13	250
13	250
13	250
13	250
13	251
13	251
13	251
13	251
15	251
15	251
15	251
17	251
17	251
17	251
18	251
18	251
18	251
20	251
20	251
20	251
22	251
22	251
22	251
22	251
24	251
24	252
24	252
24	252
24	252
24	252
24	252
24	252
24	252
22	252
22	252
22	252
22	252
22	252
22	252
20	252
20	252
20	252
20	252
20	252
20	253
20	253
20	253
20	253
20	253
20	253
20	253
20	253
20	253
20	253
20	253
22	253
22	253
22	253
24	253
24	253
24	253
26	253
26	253
26	253
28	253
28	253
28	253
30	253
30	253
30	253
30	253
32	253
32	253
32	253
32	253
32	253
32	253
32	253
32	253
32	253
32	254
32	254
32	254
32	254
32	254
30	254
30	254
30	254
30	254
30	254
28	254
28	254
28	254
28	254
28	254
26	254
26	254
26	254
26	254
26	254
26	254
26	254
26	254
26	254
24	254
24	254
24	254
24	254
24	254
24	254
24	254
24	254
26	254
26	254
26	254
26	254
26	254
26	254
26	254
26	254
26	254
26	254
28	254
28	254
28	254
28	254
28	254
28	254
30	254
30	254
30	254
30	254
30	254
30	254
30	254
32	254
32	254
32	254
32	254
32	254
32	254
32	254
32	254
32	254
32	254
32	254
32	254
32	254
32	254
30	254
30	254
30	254
30	254
30	254
28	254
28	254
28	254
28	254
28	254
26	254
26	254
26	254
26	254
26	254
26	254
26	254
26	254
26	254
26	254
26	254
26	254
26	254
26	254
26	254
28	254
28	254
28	254
30	254
30	254
30	255
30	255
32	255
32	255
32	255
34	255
34	255
34	255
34	255
35	255
35	255
35	255
35	255
35	255
35	255
35	255
34	255
34	255
34	255
34	255
34	255
32	255
32	255
40	255
40	255
40	255
38	255
38	255
38	255
38	255
38	255
38	255
38	255
38	255
38	255
38	255
38	255
38	254
38	254
38	254
38	253
38	253
38	253
38	252
38	252
40	252
40	252
40	252
40	252
40	252
40	252
40	252
40	252
40	252
40	252
38	252
38	252
38	252
38	252
38	252
38	252
38	252
38	252
38	252
38	252
38	252
38	252
38	252
40	252
40	252
40	252
40	252
40	252
42	252
42	252
42	252
44	252
44	252
44	252
46	252
46	252
46	252
46	252
48	252
48	252
48	252
48	251
48	251
48	251
48	250
48	250
48	250
48	249
48	249
48	249
48	249
48	249
48	249
48	249
48	249
46	249
46	249
46	249
46	249
46	249
46	249
46	249
46	249
46	249
46	249
46	249
46	249
46	249
46	249
48	249
48	249
48	249
48	249
48	249
48	249
50	249
50	249
50	249
50	249
50	249
52	248
52	248
52	248
52	247
52	247
52	247
52	246
52	246
52	246
52	246
54	246
54	246
54	246
54	246
54	246
54	246
54	246
54	246
54	246
54	246
54	246
56	245
56	245
56	245
56	244
56	244
56	244
56	243
56	243
56	243
56	243
56	243
56	243
56	243
56	243
56	243
56	243
56	243
56	243
56	243
56	243
56	243
56	243
56	243
56	243
56	243
56	243
56	243
56	243
56	243
56	243
57	243
57	243
57	243
59	243
59	243
61	243
61	243
63	243
65	243
65	242
67	242
67	242
69	241
71	241
71	241
73	240
73	240
75	240
75	240
75	240
77	240
77	240
77	240
77	240
77	240
79	240
77	240
77	240
77	240
77	240
77	240
77	240
75	240
75	240
75	240
73	240
73	240
73	240
71	240
71	240
69	240
69	240
67	240
67	240
67	240
65	240
65	240
63	239
63	239
63	239
61	238
61	238
61	238
59	237
59	237
59	237
57	237
57	237
57	237
57	237
56	237
56	237
56	237
56	237
56	236
56	236
56	236
56	235
54	235
54	235
54	234
54	234
54	234
54	234
54	234
54	234
54	234
54	234
54	234
54	234
54	234
54	234
54	234
54	234
54	234
54	234
54	234
54	234
56	234
56	234
56	234
57	234
57	233
57	233
59	233
59	233
59	233
61	232
61	232
63	232
63	232
63	232
63	232
63	232
63	232
63	232
63	232
61	232
61	232
59	232
57	232
56	232
54	232
52	232
50	232
48	231
44	231
42	231
40	230
38	230
36	230
34	229
32	229
32	229
32	229
32	229
34	229
36	229
38	229
42	229
46	229
52	229
57	229
65	229
73	229
81	229
90	229
100	228
112	228
121	228
133	227
144	227
158	227
170	226
181	226
191	226
202	226
212	226
222	226
229	226
237	226
243	226
249	226
251	226
253	226
255	225
253	225
251	225
247	224
241	224
233	224
226	223
216	223
206	223
195	223
183	223
170	223
156	223
142	223
129	223
115	223
102	223
90	223
77	223
65	223
54	223
44	223
34	223
27	223
19	223
13	223
7	223
3	223
1	223
0	223
0	223
0	223
1	223
3	223
5	223
9	223
11	223
15	223
21	223
25	223
28	223
32	222
36	222
40	222
44	221
48	221
52	221
54	220
56	220
57	220
59	220
59	220
61	220
61	220
61	220
61	220
61	220
59	220
59	220
59	220
57	220
57	220
56	220
56	220
54	220
54	220
52	220
52	220
52	220
52	220
52	220
52	220
52	220
52	220
52	220
52	220
54	220
54	219
54	219
56	219
56	218
57	218
57	218
59	217
59	217
61	217
61	217
63	217
63	217
65	217
65	217
67	217
67	217
67	217
69	217
69	217
71	217
71	217
73	217
73	216
73	216
75	216
75	215
75	215
75	215
77	214
77	214
77	214
77	214
77	214
79	214
79	214
79	214
79	214
79	214
79	214
79	214
79	214
79	214
81	214
81	214
81	214
81	214
81	214
81	214
81	214
81	214
81	214
81	214
81	214
81	214
81	214
81	214
83	214
83	214
83	214
83	214
83	214
83	214
83	214
83	214
85	213
85	213
85	213
85	213
86	213
86	212
86	212
88	212
88	212
90	212
90	212
92	212
92	212
94	212
96	212
96	212
98	212
98	212
100	212
102	212
102	212
104	212
106	212
106	212
108	212
110	212
110	212
112	212
112	212
113	212
113	212
115	212
115	212
117	212
117	212
119	212
119	212
119	212
121	212
121	212
121	212
121	212
123	212
123	212
123	212
125	212
125	212
125	212
127	212
127	212
127	212
129	212
129	212
131	212
131	212
133	212
133	212
135	212
135	212
137	213
139	213
139	213
141	213
142	193
144	172
144	152
146	132
148	113
150	93
152	74
152	55
154	35
156	16
158	17
158	19
160	21
162	22
162	23
164	24
164	25
166	26
166	27
168	29
168	31
168	32
168	33
168	34
170	35
170	36
168	38
168	40
168	42
168	43
168	44
166	45
166	46
166	48
164	50
164	52
162	53
162	54
160	56
160	58
158	60
158	62
156	63
154	64
154	66
152	68
152	70
150	72
150	73
148	74
148	75
148	77
146	79
146	81
144	82
144	83
142	84
142	86
141	88
139	90
139	92
137	93
135	94
135	95
133	97
131	99
129	101
127	102
125	104
123	106
121	108
117	110
115	112
113	114
110	116
108	118
106	120
102	122
100	123
96	125
94	127
90	129
88	131
86	132
83	133
81	135
79	137
75	139
73	141
71	142
67	143
65	144
63	145
61	147
59	149
57	150
56	151
54	152
52	153
50	154
50	156
48	158
46	159
44	160
44	161
42	162
40	164
40	166
38	168
38	170
36	171
36	172
36	173
34	175
34	177
34	179
32	180
32	181
32	182
32	183
30	185
30	187
30	189
30	190
30	191
30	192
30	193
30	194
28	195
28	197
28	198
28	199
28	200
28	201
28	202
28	203
30	204
30	205
30	205
30	205
30	206
30	207
30	208
30	209
30	210
30	211
30	212
30	213
30	214
30	215
30	216
30	217
30	218
30	219
30	220
30	221
30	222
30	223
28	224
28	225
28	225
28	226
28	227
28	228
27	229
27	230
27	231
27	232
27	233
27	234
27	235
27	235
27	235
27	235
27	235
28	235
28	235
28	235
28	235
28	235
30	236
30	237
30	238
30	239
30	240
32	241
32	242
32	243
32	244
32	245
32	245
32	245
32	245
32	245
34	245
34	245
34	245
34	246
34	247
34	248
34	249
34	250
34	251
34	252
34	253
34	254
34	255
34	255
36	255
36	255
36	255
36	255
36	255
38	255
38	255
38	255
38	255
40	255
40	255
40	255
40	255
40	255
42	255
42	255
42	255
42	255
42	255
42	255
42	255
42	255
42	255
42	255
42	255
42	255
42	255
42	255
42	255
42	255
42	255
42	255
40	255
40	255
40	255
40	255
40	255
40	255
40	255
40	255
40	255
40	255
40	255
40	255
40	255
40	255
40	255
40	255
40	255
40	255
42	255
42	255
42	255
42	255
42	255
42	255
44	255
44	254
44	253
44	252
44	251
44	250
44	249
44	248
44	247
44	246
44	245
44	245
44	245
44	245
44	245
44	245
44	245
44	245
44	245
44	245
44	245
44	245
44	245
44	245
44	245
44	245
44	244
44	243
44	242
44	241
44	240
44	239
46	238
46	237
46	236
46	235
46	235
46	235
46	235
44	235
44	235
44	234
44	233
44	232
44	231
44	230
44	229
44	228
44	227
44	226
44	225
44	225
44	225
44	225
44	225
44	225
44	225
44	225
44	225
44	225
44	225
44	225
46	225
46	225
46	225
46	225
46	225
46	225
48	225
48	225
48	225
48	225
48	225
48	225
48	225
48	225
48	225
48	225
48	225
48	225
48	225
46	225
46	225
46	225
46	225
44	225
44	225
44	225
44	225
42	225
42	225
42	225
42	225
42	225
40	225
40	225
40	225
40	225
40	225
40	225
42	225
42	224
42	223
42	222
42	221
44	220
44	219
44	218
46	217
46	216
46	215
46	215
48	215
48	215
48	215
48	215
48	215
48	215
48	215
48	215
48	215
48	215
48	215
48	215
48	215
48	215
46	215
46	215
46	215
46	214
46	213
46	212
46	211
46	210
46	209
46	208
46	207
46	206
46	205
46	205
48	205
48	205
48	205
50	205
50	205
52	205
52	205
52	204
54	203
54	202
54	201
54	200
56	199
56	198
56	197
56	196
56	196
56	196
56	196
56	196
56	196
56	196
56	196
56	196
56	196
56	196
56	196
54	196
54	196
54	196
54	196
54	196
54	195
54	194
54	193
54	192
54	191
54	190
54	189
54	188
54	187
54	186
54	186
54	186
54	186
54	186
54	186
54	186
54	186
56	185
56	184
56	183
56	182
56	181
56	180
57	179
57	178
57	177
57	176
57	176
59	176
59	176
59	176
61	176
61	176
61	175
61	174
63	173
63	172
63	171
63	170
65	169
65	168
65	167
65	166
65	166
65	166
67	166
67	166
67	166
67	166
65	166
65	166
65	166
65	166
65	166
65	166
63	166
63	166
63	166
61	166
61	165
61	164
59	163
59	162
59	161
59	160
57	159
57	158
57	157
57	156
57	156
57	156
57	156
57	156
57	156
57	156
57	156
60	155
60	154
60	153
62	152
62	151
64	150
64	149
66	148
66	147
68	147
68	147
70	147
70	147
72	147
72	147
72	146
73	145
73	144
73	143
75	142
75	141
75	140
75	139
75	138
75	137
77	137
77	137
77	137
77	137
77	137
77	137
77	137
77	137
77	137
77	137
77	136
77	135
77	134
77	133
77	132
77	131
79	130
79	129
79	128
79	127
79	127
79	127
79	127
79	127
79	127
79	127
77	126
77	125
77	124
77	123
77	122
77	121
75	120
75	119
75	118
75	117
75	117
73	117
73	117
73	117
72	117
72	117
72	116
70	115
70	114
68	113
68	112
68	111
66	110
66	109
64	108
64	107
62	107
62	107
60	107
60	107
59	107
59	107
57	107
57	107
57	107
55	107
55	107
55	107
55	107
55	107
55	106
55	105
55	104
57	103
57	102
57	101
59	100
59	99
60	98
60	98
62	98
62	98
64	98
66	98
66	98
68	98
68	98
70	98
70	97
72	96
72	95
72	94
72	93
73	92
73	91
73	90
73	89
72	88
72	88
72	88
70	88
70	88
68	88
66	88
66	88
64	88
60	87
59	86
57	85
55	84
53	83
49	82
48	81
46	80
44	79
40	78
40	78
38	78
36	78
36	78
36	78
36	78
38	78
40	78
42	78
46	78
51	78
57	78
62	77
70	76
77	75
85	74
94	73
105	72
114	71
125	70
136	69
149	68
160	68
171	68
182	68
194	68
205	68
214	68
223	68
230	68
238	68
243	68
249	68
251	68
253	68
255	68
253	68
251	68
247	67
242	66
234	65
227	64
218	63
208	62
197	61
184	60
173	59
160	58
147	58
133	58
120	58
107	58
94	58
81	58
70	58
59	58
48	58
38	58
29	58
22	58
16	58
11	58
7	58
3	58
1	58
0	58
0	58
0	58
1	58
3	57
5	56
9	55
12	54
16	53
20	52
24	51
29	50
33	49
36	49
42	49
46	49
49	49
51	49
55	49
59	49
60	49
62	49
64	48
64	47
66	46
66	45
68	44
68	43
68	42
66	41
66	40
66	39
66	39
64	39
64	39
64	39
62	39
62	39
62	39
62	39
60	39
60	39
60	39
60	39
60	39
60	39
60	39
62	39
62	39
62	39
62	39
62	39
64	38
64	37
64	36
66	35
66	34
66	33
68	33
68	33
68	32
70	31
70	30
72	29
72	29
72	29
73	29
73	29
75	29
75	29
75	29
77	29
77	28
77	27
79	26
79	25
79	24
79	23
81	22
81	21
81	20
81	19
81	19
81	19
81	19
81	19
81	19
81	19
81	19
81	19
81	19
81	19
81	19
81	19
81	19
81	19
81	19
81	19
81	19
83	19
83	19
83	19
83	19
83	19
83	19
85	19
85	18
85	17
85	16
86	15
86	14
86	13
88	12
88	11
88	10
90	9
90	9
90	9
92	9
92	9
92	9
94	9
94	9
94	9
96	9
96	9
97	9
97	9
99	9
99	9
101	8
101	7
103	6
103	5
105	4
105	3
107	2
107	1
109	0
110	0
110	0
112	0
112	0
114	0
114	0
116	0
118	0
118	0
120	0
120	0
121	0
121	0
123	0
125	0
125	0
127	0
127	0
129	0
131	0
131	0
133	1
134	2
134	3
136	4
138	5
138	6
140	7
142	8
142	9
144	9
144	9
145	9
145	10
147	11
149	12
149	13
149	14
151	15
151	16
153	17
153	18
153	19
155	19
155	19
155	19
155	20
155	21
157	22
157	23
157	24
157	25
157	26
157	27
157	28
158	30
158	31
158	32
158	33
158	34
158	35
158	36
158	38
158	40
160	42
160	43
160	44
160	45
160	46
160	47
160	49
160	51
160	52
160	53
160	54
160	56
160	58
158	60
158	62
158	63
158	64
157	65
157	67
155	69
155	71
153	72
153	73
151	74
149	76
147	78
147	80
145	82
144	83
142	84
140	85
138	87
136	89
134	91
133	92
131	93
127	94
125	96
123	98
121	100
120	102
118	103
116	105
114	107
110	109
109	111
107	112
105	113
103	115
101	117
99	119
96	121
94	122
92	123
90	124
88	126
86	128
83	130
81	131
79	132
77	133
75	134
72	136
70	138
68	140
66	141
64	142
62	143
60	144
59	145
57	146
55	148
53	149
51	150
49	151
48	152
46	153
44	154
42	155
42	157
40	158
38	159
38	160
36	161
36	162
35	163
35	164
33	166
33	168
31	169
31	170
29	171
29	172
29	173
27	174
27	175
27	177
25	178
25	179
25	180
25	181
25	182
25	183
25	184
25	185
25	186
25	186
25	187
25	189
25	190
25	192
25	194
25	197
25	199
27	202
27	205
27	207
27	208
27	209
27	210
27	212
27	212
27	212
27	212
27	212
27	212
27	213
25	214
25	215
25	216
25	217
25	218
25	219
25	220
25	221
25	223
25	224
27	225
27	226
27	227
27	228
29	229
29	230
29	231
31	232
31	233
31	234
33	235
33	236
33	237
35	238
35	239
35	240
36	241
36	242
36	244
36	244
36	244
36	244
36	244
36	244
36	244
36	244
36	244
36	244
36	244
36	244
36	244
36	244
36	244
36	244
36	244
36	244
36	244
36	244
36	244
36	244
36	244
36	245
36	246
36	247
36	248
36	249
36	250
36	251
36	252
36	253
36	255
36	255
38	255
38	255
38	255
38	255
38	255
38	255
38	255
38	255
38	255
38	255
38	255
40	255
40	255
40	255
40	255
40	255
42	255
42	255
42	255
42	255
42	253
44	252
44	251
44	250
44	249
46	248
46	247
46	246
46	245
46	244
46	244
46	244
46	244
46	244
46	244
46	244
46	244
46	244
46	244
46	244
46	244
46	244
46	244
44	244
44	244
44	244
44	244
44	244
44	244
44	244
44	244
42	244
42	244
42	244
42	244
42	244
42	244
42	244
42	244
42	244
42	244
42	244
42	244
42	244
42	244
42	244
42	244
42	244
42	244
42	244
42	244
44	244
44	242
44	241
44	240
44	239
44	238
44	237
44	236
44	235
46	234
46	233
46	233
46	233
46	233
46	233
48	233
48	233
48	233
48	233
48	233
48	233
48	233
48	233
48	233
48	233
49	233
49	233
49	233
49	233
49	233
49	233
49	232
49	231
49	230
49	229
49	228
49	227
49	226
49	225
49	224
49	223
49	223
49	223
49	223
48	223
48	223
48	223
48	223
48	223
48	223
46	223
46	223
46	223
46	223
46	223
44	223
44	223
44	223
44	223
44	221
42	220
42	219
42	218
42	217
42	216
42	215
42	214
44	213
44	212
44	212
44	212
44	212
46	212
46	212
46	212
46	212
48	212
48	212
48	212
48	212
48	212
49	212
49	212
49	212
49	212
49	212
49	212
49	212
49	212
49	212
49	212
49	212
49	212
49	210
49	209
49	208
49	207
49	206
49	205
49	204
51	203
51	202
51	201
51	201
51	201
51	201
51	201
51	201
53	201
53	201
53	201
53	201
53	201
53	201
53	201
53	201
53	201
53	201
53	201
53	201
51	200
51	199
51	198
51	197
51	196
51	195
51	194
51	193
51	192
51	191
51	191
51	191
51	191
51	191
51	191
51	191
51	191
53	189
53	188
53	187
53	186
53	185
53	184
53	183
53	182
53	181
53	180
53	180
53	180
53	180
53	180
53	180
53	180
53	180
53	179
53	178
53	177
53	176
53	175
53	174
51	173
51	172
51	171
51	170
51	170
51	170
51	170
49	170
49	170
49	170
49	170
49	170
49	170
49	170
49	168
49	167
49	166
49	165
49	164
49	163
49	162
49	161
49	160
49	159
49	159
49	159
49	159
51	159
51	159
51	157
53	156
53	155
53	154
55	153
55	152
55	151
57	150
57	149
57	148
59	148
59	148
59	148
60	148
60	148
60	148
62	148
62	148
64	148
64	148
64	148
66	148
66	148
66	147
68	146
68	145
70	144
70	143
70	142
72	141
72	140
72	139
73	138
73	138
73	136
73	135
75	134
75	133
75	132
75	131
75	130
75	129
75	128
75	127
73	127
73	127
73	127
72	127
72	127
72	127
70	127
70	127
68	127
68	127
66	127
66	127
64	127
64	127
62	127
62	127
60	127
60	127
60	127
59	127
59	127
59	127
59	127
57	125
57	124
57	123
57	122
57	121
57	120
57	119
57	118
57	117
57	116
57	116
57	116
55	115
55	114
55	113
55	112
55	111
55	110
55	109
55	108
53	107
53	106
53	106
53	106
53	106
53	106
53	106
53	106
53	106
53	106
53	106
53	106
53	106
53	106
53	106
55	106
55	106
55	104
55	103
57	102
57	101
57	100
59	99
59	98
59	97
60	96
60	95
60	95
60	95
60	95
60	95
60	95
60	95
60	95
59	95
59	95
57	95
57	95
55	95
53	95
51	95
49	94
48	93
46	92
44	91
42	90
38	89
36	88
35	87
33	86
31	85
31	85
29	85
29	85
29	85
29	83
29	82
31	81
33	80
36	79
38	78
44	77
48	76
53	75
60	74
66	74
75	74
83	74
92	74
101	74
110	74
121	74
131	74
142	74
153	74
162	74
173	74
182	74
192	72
201	71
208	70
216	69
223	68
245	65
251	64
253	62
255	61
255	59
253	57
251	55
247	52
241	48
236	45
228	44
219	43
210	42
198	41
187	40
176	39
163	38
150	37
136	37
123	37
110	37
99	37
86	37
75	36
63	35
52	34
43	33
33	32
26	31
18	30
13	29
9	28
5	28
3	28
1	28
0	28
0	29
1	30
3	31
5	32
9	33
13	34
16	35
20	36
24	37
28	37
33	37
37	37
41	37
46	37
50	37
54	36
58	35
60	34
63	33
65	32
67	31
69	30
69	29
71	28
71	28
73	28
73	28
73	28
73	28
73	28
73	28
71	28
71	28
71	28
71	28
71	28
69	28
69	28
69	28
69	28
69	28
69	27
69	26
69	25
71	24
71	23
71	22
71	21
73	20
73	19
73	18
73	18
75	18
75	18
75	18
75	18
75	18
76	18
76	18
76	18
76	18
76	18
76	18
76	18
78	18
78	18
78	18
78	18
78	18
78	18
78	18
80	18
80	18
80	18
82	18
82	18
82	18
84	18
84	18
84	18
86	18
86	18
88	18
88	18
88	18
90	18
90	18
90	18
91	18
91	18
91	18
91	18
91	18
91	18
91	18
91	18
91	17
91	16
91	15
91	14
91	13
93	12
93	11
93	10
93	9
93	9
93	9
93	9
95	9
95	9
95	9
95	9
97	9
97	9
99	9
99	9
99	9
101	9
101	9
103	8
103	7
103	6
105	5
105	4
105	3
105	2
106	1
106	0
106	0
106	0
108	0
108	0
108	0
108	0
108	0
110	0
110	0
110	0
112	0
112	0
114	0
114	1
116	2
116	3
118	4
118	5
120	6
121	7
123	8
125	9
125	9
127	9
129	9
131	9
133	9
135	9
136	9
138	9
138	9
140	9
142	9
144	9
146	9
146	9
148	9
150	9
151	9
151	9
153	9
155	9
155	10
157	11
157	12
159	13
159	14
161	15
161	16
161	17
163	19
163	20
165	21
165	22
165	23
166	24
166	25
166	26
168	28
168	30
168	31
170	32
170	33
172	34
172	36
172	38
172	40
174	41
174	42
174	43
176	44
176	45
176	47
176	49
176	50
176	51
176	52
176	54
176	56
176	58
176	60
176	61
176	62
176	63
176	65
174	67
174	69
174	70
172	72
172	74
170	76
170	78
168	79
168	80
166	81
166	81
165	82
163	83
163	86
161	89
159	92
157	94
157	96
155	98
153	99
151	101
150	103
148	105
146	107
144	108
142	109
140	110
138	111
135	113
133	115
131	116
129	117
127	118
123	119
121	121
120	123
118	125
114	126
112	127
110	128
108	129
105	130
103	132
101	134
99	135
95	136
93	137
91	139
90	141
86	143
84	145
82	146
80	147
78	148
76	149
75	151
73	153
71	154
69	155
67	156
65	157
63	159
61	161
60	163
60	164
58	165
56	166
56	167
54	168
54	169
52	171
50	172
50	173
48	174
48	175
48	176
46	177
46	179
45	180
45	181
43	182
43	183
41	184
41	185
41	186
39	187
39	189
37	190
37	191
35	192
35	193
33	194
33	195
33	196
31	197
31	198
31	199
31	200
31	201
30	202
30	203
30	204
30	205
31	206
31	208
31	209
31	210
31	211
33	212
33	213
33	214
35	215
35	216
37	217
37	218
37	219
39	220
39	221
39	222
41	223
41	224
41	225
41	226
41	226
41	226
41	226
43	226
43	227
43	228
43	229
43	230
41	231
41	232
41	233
41	234
41	235
43	236
43	236
43	236
43	236
43	236
43	236
43	236
45	236
45	236
45	236
46	236
46	236
46	236
48	236
48	236
48	236
48	236
50	236
50	236
50	236
50	236
50	236
50	236
52	237
52	238
52	239
52	240
52	241
50	242
50	243
50	244
50	245
50	245
50	245
50	245
50	245
50	245
50	245
50	245
50	245
52	245
52	245
52	246
52	247
54	248
54	249
54	250
56	251
56	252
56	253
58	253
58	253
60	252
60	251
60	250
61	249
61	248
61	247
61	246
63	245
63	245
63	245
63	245
63	245
63	245
65	245
65	245
65	245
65	245
65	245
65	245
65	245
65	245
65	245
65	245
63	245
63	245
63	245
63	245
63	245
63	245
63	245
61	245
61	245
61	245
61	245
61	245
61	245
60	245
60	245
60	245
60	245
60	245
60	245
60	245
60	245
60	245
60	245
60	245
60	245
60	245
60	245
60	245
60	245
60	245
60	245
60	245
61	245
61	244
61	243
61	242
61	241
61	240
61	239
63	238
63	237
63	236
63	236
63	236
63	236
63	236
65	236
65	236
65	236
65	236
65	236
65	236
61	236
63	236
63	235
63	234
63	233
63	232
63	231
63	230
63	229
63	228
63	227
63	226
63	226
63	226
63	226
63	226
63	226
61	226
61	226
61	226
61	226
61	226
61	226
59	226
59	226
59	226
59	226
59	226
59	226
59	226
59	226
59	226
59	226
59	226
59	226
59	226
59	226
59	226
61	226
61	226
61	226
61	226
63	226
63	225
63	224
63	223
65	222
65	221
65	220
65	219
65	218
65	217
65	217
65	217
65	217
65	217
65	217
65	217
63	217
63	217
63	216
63	215
63	214
61	213
61	212
61	211
61	210
61	209
59	208
59	207
59	207
59	207
59	207
59	207
59	207
59	207
61	207
61	207
61	207
61	207
63	207
63	207
63	207
65	207
65	207
65	207
66	207
66	207
66	207
68	207
68	207
68	207
68	207
70	207
70	207
70	207
70	207
70	207
70	207
70	207
72	206
72	205
72	204
72	203
72	202
72	201
72	200
70	199
70	198
70	198
70	198
70	198
70	198
70	198
68	198
68	198
68	197
68	196
68	195
66	194
66	193
66	192
66	191
66	190
65	189
65	188
65	188
65	188
65	188
65	188
65	188
65	188
65	188
65	188
65	188
65	188
65	188
65	188
65	187
66	186
66	185
66	184
66	183
68	182
68	181
68	180
70	179
70	179
70	179
70	179
70	179
72	179
72	179
72	179
72	179
72	179
72	179
72	179
72	179
72	178
72	177
70	176
70	175
70	174
70	173
70	172
68	171
68	170
68	170
68	170
66	170
66	170
66	170
66	170
66	170
66	169
66	168
66	167
66	166
66	165
66	164
66	163
66	162
68	161
68	160
68	160
68	159
70	158
70	157
70	156
70	155
72	154
72	153
72	152
72	151
72	151
73	151
73	151
73	151
73	151
73	151
73	150
73	149
73	148
73	147
73	146
73	145
73	144
73	143
73	142
73	141
73	141
73	141
73	141
73	141
73	141
73	141
73	141
73	141
73	141
73	141
73	141
73	140
75	139
75	138
75	137
75	136
75	135
75	134
75	133
75	132
75	132
75	132
75	132
77	132
77	132
77	131
77	130
77	129
77	128
79	127
79	126
79	125
79	124
80	123
80	122
80	122
82	122
82	122
84	122
84	122
84	122
86	122
86	122
87	122
87	122
87	122
89	122
89	122
89	122
91	122
91	121
91	120
91	119
91	118
91	117
91	116
91	115
91	114
91	113
89	113
89	113
89	113
87	113
87	113
87	113
86	113
86	112
84	111
84	110
82	109
82	108
80	107
80	106
79	105
79	104
77	103
77	103
75	103
75	103
75	103
73	102
73	101
72	100
72	99
70	98
70	97
70	96
68	95
68	94
68	94
68	94
66	94
66	94
66	94
66	94
66	94
66	94
66	94
66	94
66	94
68	94
68	94
68	94
68	93
70	92
70	91
72	90
72	89
72	88
73	87
73	86
75	85
75	85
77	85
77	85
77	85
79	84
79	83
79	82
79	81
79	80
79	79
79	78
79	77
79	76
79	75
77	75
77	74
75	73
73	72
72	71
70	70
68	69
66	68
65	67
63	66
61	66
59	66
58	66
56	66
54	66
52	66
51	66
51	66
49	66
49	66
51	66
51	66
52	66
56	66
59	66
63	66
68	66
73	66
79	66
86	66
94	66
102	66
110	66
121	66
130	66
140	66
151	66
161	66
172	66
182	66
193	66
204	66
212	66
221	66
230	66
237	66
242	66
247	66
251	66
253	65
255	64
255	63
253	62
249	61
244	60
239	59
232	58
225	57
216	56
205	56
195	56
184	56
172	56
160	55
147	54
135	53
123	52
110	51
100	50
87	49
77	48
68	47
59	47
51	47
43	47
36	47
31	47
28	47
24	47
21	47
19	47
19	46
19	45
19	44
21	43
22	42
24	41
28	40
31	39
33	38
36	37
40	37
43	37
47	37
51	37
54	37
56	37
59	37
61	37
65	37
66	37
68	37
70	37
72	37
72	37
73	37
73	37
75	37
75	37
75	37
75	37
75	37
77	37
77	37
77	37
77	37
77	36
77	35
77	34
77	33
77	32
77	31
77	30
75	29
75	28
75	28
75	28
75	28
75	28
75	28
75	28
75	28
75	28
75	28
75	28
75	28
75	28
75	28
75	28
75	28
75	28
75	28
77	28
77	27
77	26
77	25
79	24
79	23
79	22
80	21
80	20
80	19
82	18
82	18
82	18
84	18
84	18
84	18
84	18
84	18
86	18
86	18
86	18
86	18
86	18
87	18
87	18
87	18
87	18
87	18
89	18
89	18
89	18
89	17
91	16
78	16
78	16
79	15
79	15
81	16
81	17
83	17
83	17
83	17
85	17
85	17
87	17
87	16
87	15
89	14
89	13
89	12
91	11
91	10
91	9
91	8
93	8
93	8
93	8
93	8
93	8
95	8
95	8
95	8
95	8
95	8
97	8
97	8
97	8
98	8
98	8
98	8
100	8
100	8
100	8
102	8
102	8
104	8
104	8
104	8
106	8
106	8
108	8
108	8
110	7
110	6
112	5
112	4
112	4
114	3
114	2
116	1
116	0
117	0
119	1
119	2
121	3
121	4
123	4
123	5
125	6
127	7
127	8
129	8
129	8
131	8
133	8
133	8
135	8
137	8
137	9
138	10
140	11
140	12
142	13
144	14
144	15
146	16
148	17
148	17
150	18
150	19
152	20
154	21
154	22
156	23
156	24
157	26
157	27
159	28
159	29
161	30
161	31
163	32
163	34
165	35
165	37
165	38
167	39
167	39
167	41
169	43
169	44
169	46
171	47
171	49
171	51
171	52
171	54
171	56
171	57
171	59
171	61
171	62
171	64
171	65
171	67
169	69
169	70
169	72
167	74
165	75
165	77
163	78
161	80
161	82
159	83
157	83
156	85
154	87
152	88
150	90
148	91
146	92
144	94
142	96
138	97
137	99
135	100
133	101
131	103
129	105
127	106
125	108
123	109
121	110
119	111
117	113
116	114
112	116
110	117
108	118
106	119
104	120
102	122
100	123
97	125
95	126
93	127
89	127
87	129
85	131
81	132
79	134
78	135
74	136
72	138
70	140
68	141
64	143
62	144
60	145
58	147
57	149
55	150
53	152
51	153
49	154
47	155
45	157
45	158
43	160
41	161
41	162
39	163
38	164
38	166
36	167
34	169
34	170
32	171
32	171
30	172
30	174
28	176
28	177
26	178
26	179
24	180
24	181
22	182
22	184
22	185
20	186
20	187
20	188
20	189
20	190
20	191
20	193
20	194
20	195
20	196
20	197
20	198
20	199
20	200
20	201
20	202
20	202
20	203
20	204
20	205
22	206
22	207
22	208
22	209
22	210
22	211
22	211
22	211
22	211
22	211
22	212
22	213
22	214
22	215
22	215
22	216
22	217
24	218
24	219
24	219
24	220
26	221
26	222
26	223
28	224
28	225
28	226
30	228
30	228
30	229
32	230
32	231
32	232
34	232
34	234
34	235
34	236
34	237
34	237
34	237
34	238
34	239
34	240
34	241
34	242
34	243
32	244
32	245
32	246
32	246
32	246
32	246
30	246
30	246
30	246
30	246
30	246
30	246
30	246
30	246
30	246
30	246
30	246
30	246
30	246
30	246
32	246
32	246
32	246
32	246
34	246
34	246
34	246
34	246
34	246
36	246
36	246
36	246
36	246
36	247
38	248
38	249
38	250
38	251
38	252
38	253
38	254
38	255
39	255
39	255
39	255
39	255
39	255
39	255
39	255
39	255
39	255
39	255
41	255
41	255
41	255
41	255
41	255
41	255
41	255
41	255
41	255
43	255
43	255
43	255
43	255
43	255
43	255
43	255
43	254
41	253
41	252
41	251
41	250
41	249
41	248
41	247
41	246
41	246
41	246
41	246
41	246
41	246
41	246
41	246
41	246
41	246
41	246
41	246
41	246
43	246
43	246
43	246
43	246
43	246
43	245
45	244
45	243
45	242
45	241
45	240
45	239
45	238
45	237
45	237
45	237
45	237
45	237
45	237
45	237
45	237
43	237
43	237
43	237
43	237
43	237
43	237
43	237
43	237
41	236
41	235
41	234
41	233
41	232
41	231
41	230
43	229
43	228
43	228
43	228
43	228
43	228
45	228
45	228
45	228
45	228
45	228
47	228
47	228
47	228
47	227
47	226
49	225
49	224
49	223
49	222
49	221
49	220
49	219
49	219
49	219
49	219
49	219
49	219
49	219
49	219
49	219
49	219
49	218
49	217
49	216
47	215
47	215
47	214
47	213
49	212
49	211
49	211
49	211
49	211
49	211
49	211
49	211
49	211
49	211
49	211
49	211
49	211
49	211
49	211
49	211
49	211
51	211
51	211
51	211
51	211
51	211
51	211
51	211
51	211
51	210
51	209
51	208
51	207
51	206
51	205
51	204
51	203
51	202
49	202
49	202
49	202
49	202
49	202
49	202
49	202
47	202
47	201
47	200
47	199
47	198
47	197
45	196
45	195
45	194
45	193
45	193
45	193
45	193
45	193
45	193
45	193
45	193
45	193
47	193
47	193
47	193
47	193
47	193
47	193
49	193
49	193
49	193
49	193
49	193
49	193
51	193
51	192
51	191
58	188
58	185
58	181
58	178
58	176
58	174
58	171
58	168
58	165
58	162
58	162
58	162
58	162
58	162
58	162
58	162
58	162
58	162
58	162
58	162
58	161
58	160
58	159
56	158
56	158
56	157
56	156
56	155
56	154
56	154
56	154
55	154
55	154
55	154
55	153
55	152
55	151
55	150
55	150
53	149
53	148
53	147
53	146
53	146
53	146
53	146
53	146
53	145
53	144
53	143
53	143
53	142
53	141
53	141
53	140
53	139
51	139
51	139
51	139
51	139
51	139
51	139
51	139
51	139
51	139
51	139
51	139
51	139
53	139
53	139
53	139
53	139
55	139
55	139
55	138
56	137
56	136
58	135
58	135
58	134
60	133
60	132
62	131
62	131
62	131
64	131
64	131
64	131
64	131
64	130
64	129
64	128
64	127
64	127
62	126
62	125
62	124
62	123
62	123
60	123
60	123
60	122
60	121
60	120
60	119
60	119
60	118
60	117
62	116
62	115
62	115
64	115
64	115
66	115
67	115
67	115
69	115
71	115
71	115
73	115
75	115
77	115
77	115
78	115
78	115
80	115
80	115
82	115
82	115
84	115
84	115
84	115
84	115
84	115
84	115
84	114
84	113
84	112
84	112
84	111
84	110
84	110
84	109
82	108
82	108
82	108
82	108
80	108
80	107
78	106
78	105
78	104
77	104
75	103
75	102
73	101
73	100
71	100
71	100
69	100
67	100
67	100
66	100
66	100
64	100
62	100
62	100
60	100
60	100
60	100
58	100
58	100
58	100
58	100
56	100
56	100
56	100
56	100
56	100
56	100
56	100
58	100
58	99
58	98
58	97
58	96
60	96
60	95
60	94
60	93
62	92
62	92
62	92
64	92
64	92
64	92
66	92
66	92
66	92
67	92
67	92
67	92
67	92
69	92
69	92
69	92
69	92
69	92
69	92
67	92
67	92
67	92
66	92
64	92
62	92
62	92
60	92
56	92
55	92
53	92
51	92
49	92
47	92
45	92
44	92
44	92
42	91
42	90
42	89
44	89
45	88
47	87
51	87
55	86
58	85
64	85
71	85
78	85
86	85
95	85
104	85
113	85
124	85
135	85
146	85
157	85
168	85
179	85
190	85
201	85
210	85
220	85
229	85
236	85
242	85
247	85
251	85
255	85
255	85
255	85
253	85
249	85
245	85
240	85
232	85
223	85
214	85
205	85
194	85
181	85
168	85
155	85
143	85
130	85
117	86
104	87
91	87
78	88
67	89
56	89
47	90
38	91
29	92
22	92
16	92
11	92
5	92
3	92
0	92
0	92
0	92
0	92
0	92
1	92
5	92
9	92
11	92
14	92
20	92
23	92
27	92
31	92
36	92
40	92
44	92
47	92
49	92
53	92
55	92
58	92
60	92
60	92
62	92
62	92
64	92
64	92
64	92
64	92
64	92
62	93
62	94
62	95
60	96
60	96
60	97
58	98
58	99
58	100
56	100
56	100
56	100
56	100
56	100
58	100
58	100
58	100
58	101
60	102
60	103
62	104
62	104
62	105
64	106
64	107
66	108
66	108
66	108
67	108
67	108
67	108
69	108
69	108
69	108
69	108
71	108
71	108
71	108
71	108
71	108
71	108
73	108
73	108
73	108
73	108
73	108
75	108
75	108
75	108
77	108
77	108
77	108
78	108
78	108
78	108
80	108
80	108
80	108
82	108
82	108
84	108
84	108
84	108
86	108
86	108
86	108
88	108
88	109
88	110
88	110
89	111
89	112
89	112
89	113
91	114
91	115
91	115
91	115
91	115
91	115
91	115
93	115
93	115
93	115
93	115
93	115
93	116
93	117
93	118
93	119
93	119
93	120
93	121
93	122
93	123
93	124
93	125
93	126
95	127
95	127
95	128
95	129
95	131
97	132
97	133
97	134
99	135
99	135
100	136
100	137
102	138
104	139
104	139
106	139
108	139
108	139
110	139
111	139
113	139
115	139
115	139
117	139
119	140
121	141
121	141
122	142
124	143
126	143
126	144
128	145
128	146
130	146
132	146
132	147
133	148
133	149
135	150
135	150
137	152
137	154
137	155
139	157
139	158
141	158
141	160
143	162
143	163
144	165
144	166
146	167
146	169
148	170
148	172
150	174
150	175
152	177
152	178
154	180
154	182
155	184
155	185
157	187
157	189
157	190
159	192
159	193
159	195
161	197
161	198
161	200
161	201
161	204
161	206
161	208
161	209
161	212
161	214
159	216
159	217
159	219
159	222
157	223
157	225
157	227
155	229
155	231
154	232
154	235
154	237
152	239
152	240
150	243
148	245
148	230
146	216
144	202
144	188
143	173
141	158
139	146
137	133
135	120
133	108
132	109
130	110
128	111
126	113
124	114
121	115
119	116
117	117
115	118
113	119
110	120
108	121
106	122
104	123
100	124
99	125
97	126
95	127
91	128
89	129
86	130
84	131
82	132
78	133
77	134
73	135
71	136
67	137
66	138
62	139
60	140
56	141
53	142
51	143
47	144
45	146
42	147
40	148
36	149
34	150
31	151
29	152
27	153
23	154
22	155
20	155
18	156
16	157
14	158
12	159
12	160
11	160
9	161
9	162
7	163
7	164
5	164
5	165
5	166
3	167
3	168
3	169
3	170
3	171
3	172
3	173
1	173
1	174
1	175
3	176
3	177
3	178
3	178
3	179
3	180
3	181
3	182
3	182
3	183
5	184
5	185
5	186
5	187
5	188
5	188
5	189
5	190
5	191
5	191
5	192
5	192
5	192
5	193
5	193
5	194
5	194
5	194
5	194
5	194
5	195
7	195
7	196
7	196
7	197
7	197
7	198
7	198
7	199
7	199
7	199
9	199
9	199
9	199
9	200
9	200
9	201
9	201
9	202
9	202
9	203
9	203
9	204
9	204
7	204
7	205
7	205
7	206
7	206
5	206
5	207
5	207
5	208
5	208
5	209
3	209
3	210
3	210
3	211
3	211
3	212
3	212
3	213
3	213
5	213
5	213
5	213
5	213
7	213
7	214
7	214
9	215
9	215
9	215
11	216
11	216
12	217
12	217
12	217
14	217
14	217
16	217
16	217
18	217
18	217
20	217
20	217
22	217
22	217
22	217
23	217
23	217
25	217
25	217
27	218
27	218
27	219
29	219
29	220
31	220
31	221
31	221
33	222
33	222
34	222
34	222
34	222
36	222
36	222
38	222
38	222
38	222
40	222
40	222
40	222
42	222
42	222
42	222
44	222
44	222
45	222
45	222
45	222
47	222
47	222
47	222
49	222
49	222
49	222
49	222
51	222
51	222
51	222
53	222
53	222
53	222
53	222
53	222
55	222
55	222
55	222
55	222
55	222
55	222
55	222
55	222
55	222
55	222
55	222
55	222
55	222
55	222
55	222
53	222
53	222
53	222
53	222
53	222
51	222
51	222
51	222
51	222
51	222
49	222
49	222
49	222
49	223
49	223
47	224
47	224
47	225
47	225
47	225
47	225
47	226
45	226
45	227
45	227
45	227
45	227
45	227
45	227
45	227
45	227
45	227
47	228
47	228
47	229
47	229
49	229
49	230
49	230
51	231
51	231
53	231
53	231
55	231
55	231
56	231
56	231
58	231
60	231
60	231
62	231
62	231
64	231
64	231
66	231
66	231
67	231
67	231
67	231
69	231
69	231
69	231
69	231
69	231
69	231
69	231
69	231
69	231
69	231
67	231
67	231
67	231
67	231
67	231
66	231
66	231
66	231
66	231
66	231
64	231
64	231
64	231
64	231
64	231
64	231
64	231
64	231
64	231
64	231
64	231
64	231
64	230
66	230
66	229
66	229
66	229
66	228
67	228
67	227
67	227
67	227
67	227
69	227
69	226
69	226
69	225
71	225
71	224
71	224
73	223
73	223
73	222
75	222
75	222
77	222
77	222
78	222
78	222
80	222
80	222
82	222
84	222
84	222
86	222
88	222
89	222
89	222
91	222
93	222
95	222
97	222
99	222
100	222
102	222
104	222
106	222
108	222
110	222
111	222
113	222
115	222
115	222
117	222
119	222
121	222
122	222
124	222
126	222
128	222
130	222
132	222
132	222
133	222
135	222
137	222
139	222
141	222
141	222
143	222
144	222
144	222
146	222
146	222
148	222
148	222
150	222
150	222
150	222
152	222
152	222
152	222
152	222
152	222
152	222
152	222
152	222
152	222
152	222
150	222
150	222
150	222
150	222
150	222
148	222
148	222
148	222
148	222
148	222
148	222
148	222
148	222
148	223
148	223
148	224
148	224
148	225
146	225
146	226
146	226
146	227
146	227
146	227
144	227
144	227
143	227
143	228
141	228
141	229
139	229
137	229
135	230
133	230
132	231
130	231
128	231
126	231
124	231
122	232
121	232
119	233
117	233
117	234
115	234
113	235
111	235
111	236
110	236
110	236
110	236
110	236
110	236
110	236
110	236
111	236
111	236
111	236
113	236
115	236
115	237
117	237
117	238
119	238
119	239
121	239
121	240
121	240
121	241
121	241
121	241
119	241
119	241
117	241
115	242
115	242
113	243
111	243
110	243
108	244
106	244
104	245
102	246
100	246
100	247
99	247
99	248
99	248
99	249
99	249
100	250
102	250
86	235
87	220
89	205
91	190
92	175
93	160
96	145
97	130
98	115
99	100
101	100
102	100
103	100
103	100
104	100
104	100
103	100
103	101
102	101
101	101
99	102
98	102
97	102
96	103
93	103
92	103
89	103
87	103
86	103
83	103
82	103
81	103
78	103
77	103
76	103
75	103
73	103
73	104
72	104
71	104
71	105
70	105
68	105
68	106
67	106
66	106
65	106
65	106
62	106
61	106
60	106
59	106
56	106
55	106
52	107
50	107
49	107
46	108
44	108
41	108
40	109
38	109
36	109
35	109
34	109
33	109
33	109
33	109
33	109
34	109
35	110
36	110
39	110
41	110
44	110
46	110
50	110
54	110
59	109
62	109
67	109
71	109
76	108
80	108
85	108
88	107
92	107
96	106
98	106
101	105
102	105
103	104
103	103
103	103
103	102
102	102
101	101
98	100
96	100
92	99
88	99
86	98
82	98
78	97
75	97
72	97
70	97
67	97
66	97
65	97
65	97
66	97
68	97
71	97
76	97
81	97
86	97
93	97
101	97
109	97
119	97
129	97
140	97
151	97
162	98
173	98
183	98
194	99
204	99
214	100
222	100
231	101
238	101
243	101
248	102
252	102
255	103
255	103
255	104
252	104
250	104
245	105
238	105
232	105
224	106
215	106
206	106
195	106
186	106
174	107
163	107
151	107
140	108
129	108
119	108
108	109
98	109
89	109
81	109
72	109
65	109
59	109
54	109
49	109
45	109
43	109
40	109
39	109
39	109
39	109
39	109
40	109
43	109
44	109
46	109
50	109
52	109
55	109
59	109
61	109
64	109
66	109
68	109
71	109
73	109
76	109
77	109
78	109
80	109
81	109
82	109
82	109
82	109
83	109
83	109
83	109
83	109
83	109
82	109
82	109
82	109
82	109
82	109
82	109
82	109
82	109
82	109
82	109
82	109
82	109
83	109
83	109
83	109
83	109
85	109
85	109
85	109
85	109
85	109
85	109
85	109
85	109
85	109
85	109
85	109
85	109
83	109
83	109
83	109
83	109
83	109
83	110
83	110
83	110
83	111
85	111
85	111
86	112
86	112
87	112
88	112
89	112
89	112
91	112
92	112
93	112
94	112
96	112
97	112
98	112
99	112
99	112
101	112
101	113
101	113
101	113
101	113
101	113
101	113
99	113
98	114
98	114
97	115
96	115
94	116
92	116
91	117
89	118
88	118
87	119
86	119
85	119
85	120
83	121
83	121
83	122
83	122
83	123
83	124
85	124
86	125
86	126
87	127
89	127
91	128
92	129
93	130
96	130
97	131
98	132
99	133
101	133
103	134
103	135
104	135
105	136
105	136
107	137
107	138
107	139
107	139
107	140
107	141
107	141
107	142
107	142
107	143
107	144
107	144
105	145
107	145
107	146
107	147
107	147
107	148
108	148
108	149
109	150
109	150
110	151
112	151
112	152
113	153
113	154
114	154
114	155
115	156
115	157
115	158
115	159
115	160
115	160
114	161
114	162
114	163
113	164
113	165
112	167
112	168
110	169
110	170
110	171
110	172
110	173
112	174
112	175
113	176
114	176
115	177
118	178
119	179
121	180
124	181
126	182
129	183
131	184
134	185
136	186
140	187
142	188
145	189
147	191
149	192
151	193
152	194
153	195
155	196
155	197
156	198
156	199
156	200
155	201
155	203
153	204
152	205
151	206
150	207
149	208
147	209
146	210
144	211
142	212
141	213
140	214
137	215
136	216
135	217
134	218
133	219
131	220
130	221
129	222
129	223
128	224
126	225
125	226
124	227
123	227
121	228
120	229
118	230
117	231
115	232
113	233
112	233
109	234
107	235
105	236
103	236
101	237
98	238
97	239
94	240
92	241
89	242
88	242
86	243
85	244
82	244
81	245
78	245
77	246
76	246
75	247
73	248
72	248
71	249
70	249
68	249
67	250
66	250
65	250
64	251
62	251
61	251
59	251
57	251
56	252
55	252
52	253
51	253
49	253
48	254
45	254
43	255
41	255
39	255
38	255
35	255
34	255
32	255
30	255
28	255
27	255
25	255
24	255
23	255
22	255
20	255
19	255
19	255
18	255
18	255
18	255
17	255
17	255
17	255
17	255
17	255
16	255
16	255
16	255
16	255
16	255
16	255
14	255
14	255
14	255
14	255
13	255
13	255
12	255
12	255
11	254
11	254
9	253
9	253
8	253
8	252
7	252
7	251
6	251
6	251
4	251
4	250
4	250
3	250
3	249
3	249
2	249
2	248
2	248
2	248
1	248
1	247
1	247
1	247
1	246
0	246
0	246
0	245
0	245
1	246
1	246
1	246
1	247
0	247
0	248
0	247
0	247
0	248
0	248
0	248
0	247
0	247
0	247
0	247
1	246
1	246
1	246
2	246
3	246
3	246
4	246
4	245
6	245
7	245
8	245
8	244
9	244
10	243
12	243
13	242
13	242
14	242
15	241
15	241
17	240
17	240
18	240
18	239
18	239
19	239
19	238
19	238
19	238
19	237
19	237
19	237
19	236
19	236
19	236
19	235
19	235
19	234
19	234
19	234
19	233
19	233
18	233
18	232
19	232
19	232
19	231
19	231
19	231
19	230
19	230
20	229
20	229
20	228
20	227
21	227
21	226
21	226
23	225
23	224
24	224
24	223
24	222
25	221
25	221
25	220
26	219
26	218
26	217
28	216
28	215
28	215
28	214
29	213
29	212
29	211
29	210
30	209
30	208
30	207
30	206
30	204
31	203
31	202
31	201
31	200
31	199
32	198
32	197
32	195
34	194
34	193
34	192
35	191
35	190
35	189
35	187
36	186
36	185
36	184
36	183
37	182
37	181
37	180
37	178
37	177
37	176
36	175
36	174
36	172
35	171
34	170
34	169
32	168
31	166
30	165
29	164
28	163
25	162
24	160
21	159
20	158
19	157
17	156
15	155
13	153
12	152
9	151
8	150
7	149
6	147
4	146
3	145
3	144
2	143
2	142
2	141
2	140
3	139
3	137
4	136
6	135
7	134
9	133
10	132
13	131
15	130
17	129
19	128
21	127
25	126
28	124
30	123
32	122
35	121
37	120
40	119
42	118
45	116
46	115
48	114
51	113
52	112
53	111
56	109
57	108
58	107
59	106
61	105
62	104
62	103
63	101
64	100
65	99
65	98
67	97
68	96
68	95
69	94
70	92
70	91
71	90
73	89
74	88
74	87
75	86
76	85
76	84
78	83
79	83
79	82
80	81
80	80
81	79
81	78
82	77
82	76
82	75
84	74
84	73
84	72
84	71
84	70
84	69
84	69
84	68
84	67
84	66
84	65
84	64
84	63
84	62
84	62
84	61
84	60
84	59
84	58
85	57
85	56
85	55
85	55
86	54
86	53
87	52
87	51
87	51
89	50
89	49
90	48
90	48
91	47
91	46
92	45
92	44
93	44
93	43
93	42
95	42
95	41
95	40
96	40
96	39
96	39
96	38
96	38
96	38
97	37
97	36
97	36
97	34
97	33
97	33
97	32
97	32
97	31
97	30
98	30
98	29
98	29
100	28
100	28
100	27
101	27
101	26
102	26
102	25
103	25
104	24
104	24
106	23
106	23
107	22
107	22
108	22
108	21
109	21
109	21
109	20
111	20
111	20
111	20
111	19
111	19
111	18
111	18
111	18
111	17
109	17
109	17
109	16
109	16
109	16
108	15
108	15
108	15
108	14
108	14
108	14
108	13
108	13
107	13
107	13
107	12
107	12
108	11
108	11
108	10
108	10
108	10
108	9
108	9
108	8
108	8
109	8
109	7
109	7
109	7
111	7
111	6
111	6
112	6
112	6
112	5
113	5
113	5
114	4
114	4
115	4
115	3
117	3
117	3
118	2
118	2
119	2
119	2
120	1
120	1
120	1
122	1
122	1
122	1
122	1
122	0
122	0
122	0
122	0
122	0
122	0
122	0
122	0
120	0
120	0
120	0
120	0
120	0
119	0
119	0
119	0
119	0
119	0
119	0
119	0
119	1
119	1
119	1
119	1
119	1
120	1
120	1
120	1
120	1
120	1
120	1
120	1
120	1
120	1
119	1
119	2
119	2
119	2
118	2
118	2
117	3
115	3
115	3
114	3
113	3
112	3
111	3
109	3
108	3
108	3
107	3
106	3
104	3
103	3
102	3
101	3
100	3
98	3
97	3
97	3
96	4
95	4
93	4
93	4
92	4
92	5
91	5
90	5
90	5
89	5
89	5
89	5
87	5
87	5
87	5
87	5
86	5
86	5
86	5
86	5
86	5
86	5
86	5
87	5
87	5
87	5
87	5
89	5
89	5
90	5
90	5
91	5
91	5
91	5
92	5
92	5
93	5
93	5
93	5
93	5
93	5
93	5
93	5
93	5
92	5
92	5
91	5
90	5
89	5
87	5
86	4
85	4
82	4
81	4
79	4
78	3
76	3
74	3
73	3
73	3
71	3
71	3
71	3
71	3
73	3
75	3
76	3
80	3
84	3
87	3
92	3
97	3
102	3
108	3
115	3
122	3
129	3
136	3
143	3
151	3
158	3
164	3
170	3
176	3
183	3
187	3
191	3
193	3
196	3
197	3
197	3
197	3
195	3
192	3
187	3
237	3
231	3
222	3
213	3
202	3
192	3
181	3
169	3
157	3
145	3
133	3
120	3
109	3
97	3
85	3
75	3
66	3
57	3
48	3
40	3
34	3
28	3
24	3
21	3
18	2
15	2
15	2
13	2
13	2
15	1
16	1
18	1
19	1
22	1
25	1
27	1
30	1
33	1
36	1
39	1
42	1
43	1
46	1
48	1
49	2
51	2
52	2
52	2
52	2
54	3
54	3
54	3
52	3
52	3
51	3
51	3
49	3
49	3
48	3
46	3
45	3
45	3
43	3
42	3
42	3
40	3
40	3
39	3
39	3
39	3
37	3
37	3
37	3
37	3
37	3
37	3
37	3
37	3
37	3
37	3
37	3
37	3
37	3
39	3
39	3
39	3
39	3
39	4
39	4
39	4
39	4
39	4
40	5
40	5
40	5
40	5
40	5
40	5
40	5
40	5
40	5
40	5
40	5
40	5
40	5
40	5
40	5
40	5
40	5
40	5
40	5
40	5
40	5
40	5
42	5
42	5
42	5
42	5
42	6
42	6
42	6
42	6
42	6
42	7
42	7
42	7
42	7
42	7
40	7
40	7
40	7
40	7
40	7
40	7
40	7
40	7
40	7
40	7
40	7
40	7
40	7
40	7
40	7
40	7
40	7
42	7
42	7
42	7
42	7
43	7
43	7
43	7
43	7
45	7
45	7
45	7
45	7
45	7
46	7
46	7
46	7
46	7
46	7
46	7
46	7
46	7
46	7
48	7
48	7
48	7
48	7
48	7
49	7
49	8
49	8
49	8
51	8
51	8
51	8
52	8
52	8
52	9
54	9
54	9
54	9
54	9
55	10
55	10
55	10
55	10
55	11
55	11
55	11
55	11
55	11
55	12
55	12
55	12
55	12
55	13
55	13
55	13
55	13
55	14
55	14
57	14
57	14
57	15
57	15
58	15
58	15
60	15
60	16
61	16
63	16
63	16
64	16
66	16
66	17
67	17
67	17
69	17
70	18
70	18
72	18
72	19
73	19
73	19
73	20
75	20
75	20
75	21
75	21
75	22
75	22
75	22
75	23
75	23
75	24
75	24
75	24
75	25
75	25
75	26
75	26
75	26
73	26
73	27
73	27
73	28
73	28
73	29
73	29
72	30
72	30
72	31
72	31
70	31
70	31
70	32
69	32
69	32
67	33
67	33
66	34
66	35
64	35
63	36
63	36
61	37
60	37
58	38
57	38
55	39
54	39
52	40
51	40
49	41
48	41
45	41
43	42
42	42
39	43
37	43
36	44
33	44
31	44
30	45
27	45
25	46
24	46
22	46
19	47
18	47
16	48
15	48
13	49
12	49
10	50
9	50
7	50
6	51
6	51
4	52
3	52
3	53
1	53
1	53
1	54
0	54
0	55
0	55
0	56
0	56
0	57
0	57
0	58
1	58
1	59
1	59
3	59
3	60
3	60
4	61
4	61
6	62
6	62
6	62
7	63
7	63
9	64
9	64
10	65
10	65
10	66
12	66
12	67
12	67
12	68
13	68
13	68
13	69
13	69
13	69
13	70
13	70
13	71
13	71
15	71
15	71
15	72
15	72
16	73
16	73
16	74
18	74
18	74
19	75
21	75
21	76
22	76
24	77
25	77
27	77
28	78
30	78
31	78
33	79
34	79
36	79
37	80
40	80
42	80
43	81
45	81
45	81
46	82
48	82
49	83
51	83
51	84
52	84
54	84
54	85
55	85
55	85
57	86
57	86
58	86
58	86
60	87
60	87
61	87
63	88
63	88
64	88
66	89
67	89
67	90
69	90
70	90
72	91
73	91
75	91
76	92
78	92
79	92
81	93
82	93
84	93
85	94
87	94
88	94
90	94
91	95
93	95
94	95
96	95
96	95
97	96
99	96
100	96
100	96
102	97
102	97
103	97
105	97
105	97
106	98
106	98
108	98
108	98
109	99
109	99
111	99
111	99
112	100
114	100
114	100
115	100
115	101
117	101
117	101
118	101
118	101
120	102
120	102
121	102
121	102
123	103
123	103
124	103
124	103
126	103
127	104
127	104
129	104
129	104
130	104
132	104
132	104
133	104
133	104
135	104
136	105
136	105
138	105
139	105
139	105
141	105
141	105
142	105
142	106
144	106
144	106
145	106
145	106
145	107
145	107
147	107
147	107
147	107
147	108
147	108
147	108
147	108
147	109
147	109
147	109
145	109
145	110
145	110
145	110
145	110
145	111
145	111
145	111
145	111
145	112
145	112
145	112
145	112
145	112
145	113
145	113
145	113
147	113
147	113
147	113
147	113
147	113
147	114
158	128
158	142
158	156
159	170
159	184
159	198
159	212
159	226
159	240
159	255
159	255
159	255
159	255
161	255
161	255
161	255
161	255
161	255
161	255
161	255
161	255
161	255
161	255
161	255
161	255
161	255
161	255
161	255
159	255
159	255
159	255
159	255
159	255
158	255
158	255
158	255
158	255
156	255
156	255
156	255
156	255
154	255
154	255
154	255
154	255
154	255
154	255
154	255
154	255
154	255
154	255
154	255
154	255
154	255
156	255
156	255
156	255
156	255
156	255
156	255
158	255
158	255
158	255
158	255
158	255
158	254
158	254
158	253
158	253
158	252
158	252
158	251
158	251
158	250
158	250
156	250
156	250
156	250
156	250
156	250
154	250
154	250
154	250
154	250
153	250
153	250
153	250
153	250
153	250
151	250
151	250
151	250
151	250
151	250
151	250
151	250
151	250
151	250
151	250
151	250
151	250
151	249
151	249
151	248
151	248
151	248
151	247
150	247
150	246
150	246
150	246
150	246
150	246
150	246
150	246
148	246
148	246
148	246
148	246
146	246
146	246
146	246
145	246
145	246
145	246
143	245
143	245
143	244
143	244
142	244
142	243
142	243
142	242
142	242
142	242
142	242
142	242
142	242
142	242
142	242
142	242
142	242
143	242
143	242
143	242
143	242
145	242
145	242
145	242
145	242
146	242
146	242
146	242
146	242
148	242
148	242
148	242
148	242
148	242
148	242
148	242
148	242
148	242
148	242
146	242
146	241
146	241
145	240
145	240
145	240
143	239
143	239
142	238
142	238
140	238
140	238
138	238
138	238
137	238
137	238
135	238
135	238
133	237
133	237
132	236
132	236
130	236
130	235
129	235
129	234
127	234
127	234
125	234
125	234
125	234
124	234
124	234
124	234
122	234
122	233
121	233
121	232
121	232
121	232
119	231
119	231
119	230
117	230
117	230
117	230
116	230
116	230
116	230
114	230
114	229
114	229
114	228
112	228
112	228
112	227
112	227
111	226
111	226
111	226
111	226
111	226
111	226
111	226
109	226
109	226
109	226
109	226
109	225
109	225
111	224
111	224
111	224
111	223
111	223
111	222
111	222
111	222
111	222
111	222
109	222
109	222
109	222
108	222
108	222
106	222
104	222
104	222
103	222
101	222
100	222
98	222
96	222
93	221
91	221
90	220
88	220
88	220
87	219
85	219
85	218
85	218
85	218
87	218
88	218
90	218
93	218
96	218
101	218
104	218
111	218
116	218
124	218
130	218
138	218
146	218
154	218
163	218
172	218
180	218
190	218
198	218
206	218
214	218
222	218
229	218
234	218
240	217
243	217
246	216
250	216
250	216
250	215
250	215
246	214
243	214
238	214
234	214
227	214
219	214
211	214
203	214
193	214
183	213
174	213
163	212
153	212
142	212
132	211
121	211
111	210
101	210
93	210
85	210
77	210
71	210
64	210
59	210
54	210
51	210
48	210
46	210
45	210
45	210
45	210
46	210
48	210
50	210
51	210
54	210
58	210
59	210
62	210
66	210
69	210
72	210
75	209
79	209
82	208
83	208
85	208
87	207
88	207
90	206
91	206
91	206
93	206
93	206
93	206
93	206
93	206
91	206
91	206
91	206
91	206
90	205
90	205
90	204
88	204
88	204
88	203
88	203
88	202
88	202
88	202
88	202
88	202
90	202
90	202
90	202
90	202
91	202
91	202
91	202
91	202
93	202
93	202
93	202
93	202
93	202
93	202
93	202
93	202
93	202
93	202
93	202
91	202
91	202
91	202
91	201
90	201
90	200
90	200
88	200
88	199
88	199
88	198
87	198
87	198
87	198
87	198
87	198
87	198
87	198
85	198
85	198
85	198
85	198
85	198
85	198
85	198
85	198
85	198
87	197
87	197
87	196
87	196
87	196
87	195
87	195
87	194
87	194
87	194
88	194
88	194
88	194
88	194
88	194
88	194
88	194
90	194
90	194
90	194
90	194
90	194
90	194
90	194
91	194
91	194
91	194
91	194
91	194
91	194
91	194
91	194
91	194
91	194
91	194
91	194
91	194
91	194
91	194
91	193
91	193
91	192
91	192
91	192
91	191
91	191
91	190
91	190
91	190
91	190
91	190
91	190
91	190
91	190
93	190
93	190
93	190
95	190
95	190
96	190
96	190
98	190
98	190
100	190
100	190
101	190
103	190
103	190
104	190
106	191
106	191
108	192
108	192
109	192
111	193
111	193
112	194
112	194
114	194
114	194
116	194
116	194
117	194
117	195
119	195
119	196
121	196
121	196
122	197
122	197
122	198
124	198
124	198
124	199
125	199
118	182
118	164
120	146
120	129
120	112
120	95
120	78
122	61
122	44
122	27
122	29
122	30
122	32
122	33
122	34
122	34
122	36
122	38
122	39
122	41
122	42
122	43
122	45
122	46
122	48
122	50
122	52
122	53
122	55
122	57
122	59
122	61
122	62
120	65
120	67
120	69
120	70
118	73
118	75
116	77
115	78
115	80
113	82
111	84
109	85
108	87
106	88
102	90
100	91
99	93
97	94
93	96
92	96
88	98
86	100
85	101
81	103
79	104
76	104
74	106
70	107
69	109
67	110
63	111
61	112
60	113
56	115
54	116
53	118
51	119
49	121
46	123
44	124
42	126
40	128
38	130
37	131
35	133
33	135
31	137
30	138
30	140
28	142
26	144
24	146
23	147
23	149
21	150
19	152
19	154
17	155
15	157
15	158
14	158
14	160
12	162
12	163
10	165
10	166
8	166
8	167
7	169
7	170
5	172
5	172
5	173
3	174
3	174
3	175
1	176
1	177
1	178
1	179
1	180
0	181
1	181
1	182
1	183
1	184
1	185
1	185
3	185
3	186
5	187
5	188
7	189
7	189
8	190
10	191
10	192
12	193
12	193
14	193
15	194
15	195
17	195
17	196
19	197
19	197
19	198
21	200
21	201
21	202
23	203
23	204
23	204
23	205
23	207
23	208
23	210
23	211
24	212
24	212
24	213
24	214
24	216
24	217
24	218
24	219
24	220
26	220
26	221
26	222
26	223
28	224
28	224
28	224
30	225
30	226
31	226
31	227
33	228
33	228
35	229
35	230
37	231
37	231
38	231
38	231
40	231
40	231
42	232
42	233
44	234
44	235
44	235
46	236
46	237
46	238
47	239
47	239
47	239
47	239
47	239
49	239
49	239
49	239
49	239
49	239
51	239
51	239
51	239
53	239
53	239
53	239
54	239
54	239
54	239
56	239
56	240
58	241
58	242
58	243
60	243
60	244
61	245
61	246
63	247
63	247
63	247
65	247
65	247
65	247
65	247
65	247
67	247
67	247
67	247
67	247
67	247
67	247
67	247
67	247
67	247
67	247
67	247
67	247
67	247
67	247
67	247
67	247
67	247
67	247
69	247
69	248
69	249
69	250
69	251
70	251
70	252
70	253
72	254
72	254
72	253
72	252
74	251
74	251
74	250
74	250
76	250
76	250
76	250
76	249
77	248
77	247
77	247
77	247
79	247
79	247
79	247
79	247
81	246
81	245
81	244
83	243
83	243
85	242
85	241
85	240
86	239
86	239
88	239
88	239
88	239
90	239
90	239
90	239
90	239
92	239
92	239
92	239
92	239
92	239
92	239
92	238
92	237
92	236
90	235
90	235
90	234
90	233
88	232
88	231
86	231
86	231
86	231
85	231
85	231
85	231
83	231
83	231
83	231
83	231
81	231
81	231
81	231
81	231
81	231
81	231
81	231
81	231
83	231
83	231
83	231
83	231
85	231
85	230
85	229
86	228
86	228
86	227
88	226
88	226
88	225
90	224
90	224
90	224
92	224
92	224
92	224
92	224
92	224
93	224
93	224
93	224
93	224
93	224
93	224
93	224
93	224
93	224
93	224
92	224
92	224
92	224
92	224
90	223
90	222
90	221
90	220
88	220
88	219
88	218
88	217
86	216
86	216
86	216
86	216
86	216
86	216
86	216
85	216
85	216
85	216
86	216
86	216
86	216
86	216
86	216
86	216
86	216
86	216
88	216
88	216
88	216
88	216
88	216
90	215
90	214
90	213
90	212
90	212
92	211
92	210
92	209
92	208
92	208
92	208
92	208
92	208
92	208
92	208
92	208
92	207
92	206
92	205
92	204
92	204
92	203
92	202
92	201
92	200
90	200
90	199
90	198
90	197
90	197
88	196
88	195
88	195
88	194
88	193
86	193
86	193
86	193
86	193
86	193
86	193
86	193
86	193
86	193
86	192
86	191
88	190
88	189
88	189
90	188
90	187
92	186
92	185
93	185
93	185
95	185
97	185
99	185
99	185
100	185
102	185
104	185
104	185
106	185
108	185
109	185
109	185
111	185
113	184
113	183
115	182
115	181
115	181
116	180
116	179
116	178
116	177
116	177
116	176
116	175
115	174
115	174
115	173
113	172
113	172
111	171
111	170
109	170
108	169
108	168
106	167
104	166
104	166
102	165
100	164
99	163
99	162
97	162
97	162
95	161
93	160
93	159
92	158
92	158
92	157
90	156
90	155
88	154
88	154
88	154
88	154
88	153
86	152
86	151
86	150
86	150
86	149
86	148
86	147
86	146
86	146
88	146
88	146
88	145
88	144
83	143
83	142
85	141
85	140
85	139
85	139
86	138
86	137
86	136
88	135
88	135
88	135
88	135
90	135
90	135
90	135
91	135
91	134
91	133
91	132
91	131
91	131
91	130
91	129
91	128
91	127
90	127
90	127
88	127
88	127
86	127
85	127
83	127
81	126
80	125
78	124
76	123
75	123
73	122
71	121
70	120
68	119
68	119
66	118
66	117
66	116
66	115
68	115
70	114
71	113
75	112
78	111
81	111
86	111
91	110
98	109
105	108
111	107
120	107
128	106
136	105
146	104
155	103
165	103
175	103
185	103
193	103
203	103
211	102
220	101
228	100
235	99
240	99
245	98
250	97
251	96
253	95
255	95
253	95
251	94
248	93
245	92
240	91
233	91
225	90
216	89
208	88
198	87
188	87
176	87
165	86
155	85
143	84
131	83
121	83
110	82
100	81
91	80
83	79
75	79
66	79
61	79
55	79
51	79
46	79
45	78
43	77
41	76
41	75
41	75
43	74
45	73
46	72
50	71
53	71
56	71
60	71
63	71
66	71
70	71
73	71
76	71
80	71
83	71
86	71
88	70
90	69
93	68
95	67
95	67
96	66
98	65
98	64
98	63
98	63
98	62
98	61
98	60
98	59
98	59
96	58
96	57
96	56
95	55
95	55
95	54
93	53
93	52
91	51
91	51
91	50
90	49
90	48
90	47
90	47
90	47
88	47
88	47
88	46
88	45
88	44
88	43
88	43
88	42
88	41
88	40
88	39
90	39
90	39
90	39
90	39
90	39
90	38
90	37
91	36
91	35
91	35
91	34
91	33
91	32
91	31
91	31
91	31
91	31
91	31
91	31
91	31
91	31
91	31
91	31
90	31
90	31
90	31
90	30
90	29
90	28
90	27
90	27
88	26
88	25
88	24
88	23
88	23
88	23
88	23
88	23
88	23
88	22
88	21
88	20
88	19
88	19
88	18
88	17
88	16
88	15
90	15
90	15
90	15
90	14
90	13
90	12
91	11
91	11
91	10
91	9
91	8
93	7
93	7
93	7
93	7
95	7
95	7
95	7
95	7
96	7
96	7
96	7
96	7
98	7
98	6
98	5
98	4
98	4
98	3
98	2
100	2
100	1
100	0
100	0
100	0
100	0
101	0
101	0
101	0
103	0
103	0
103	0
105	0
105	0
106	0
106	0
108	0
108	0
110	0
111	0
113	0
113	0
115	0
116	0
118	0
118	0
120	0
121	0
123	0
125	0
125	0
126	0
128	0
130	1
130	2
131	2
131	3
133	4
133	4
135	5
135	7
136	8
136	9
138	10
138	11
140	11
140	12
141	14
141	15
141	17
143	18
143	19
143	19
145	21
145	23
146	24
146	26
146	27
146	28
148	30
148	31
148	33
148	35
148	35
148	37
148	39
148	40
148	42
148	43
148	43
146	45
146	47
146	48
145	50
145	51
143	52
143	54
141	55
141	57
140	59
140	60
138	62
138	63
136	65
136	67
135	68
133	70
133	71
131	73
131	75
130	77
128	79
128	81
126	83
125	86
123	87
123	90
121	92
120	95
118	96
116	98
115	100
111	102
110	103
108	105
105	107
103	108
100	110
98	111
95	113
91	115
90	115
86	117
83	119
81	120
78	122
75	123
71	123
70	124
66	126
63	127
61	129
58	130
56	131
53	131
51	132
50	134
48	135
45	137
43	138
41	139
40	140
38	142
38	143
36	145
35	147
33	147
33	149
31	151
30	152
28	154
28	155
26	155
25	157
25	159
23	160
21	162
21	163
20	163
18	164
18	166
16	167
15	169
15	170
13	171
13	171
11	172
11	174
10	175
10	177
8	178
8	179
8	179
8	180
8	181
8	183
8	184
8	185
8	186
8	187
8	187
10	188
10	190
10	191
11	193
11	194
11	195
13	195
13	196
15	197
15	199
16	200
16	201
18	202
18	203
18	203
20	204
20	205
20	207
21	208
21	209
21	210
21	211
21	211
23	212
23	213
23	214
23	215
23	216
23	217
23	218
23	219
25	219
25	220
25	221
25	222
25	223
26	223
26	223
26	223
28	223
28	223
28	223
30	223
30	223
31	224
31	225
33	226
33	227
35	227
36	228
36	229
38	230
38	231
40	231
40	231
41	231
41	231
43	231
43	231
45	231
45	231
45	231
46	231
46	231
46	231
48	231
48	231
48	231
48	231
50	231
50	231
50	232
50	233
50	234
51	235
51	235
51	236
51	237
51	238
53	239
53	239
53	239
53	239
55	239
55	239
55	239
55	239
56	239
56	239
56	239
56	239
58	239
58	239
58	239
58	239
50	240
50	242
51	243
51	245
51	247
51	248
51	250
51	251
51	253
51	255
53	255
53	255
53	255
53	255
53	255
53	255
55	255
55	255
55	255
55	255
55	255
56	255
56	255
56	254
58	253
58	252
58	251
60	250
60	249
61	248
61	247
61	246
63	246
63	246
65	246
65	246
65	246
66	246
66	246
66	246
66	246
68	246
68	246
68	246
68	246
68	246
68	246
68	246
68	245
68	244
68	243
68	242
68	242
68	241
68	240
68	239
68	238
68	238
68	238
66	237
66	236
66	235
66	234
66	234
66	233
66	232
66	231
66	230
66	230
66	230
66	230
66	229
66	228
66	227
66	226
66	226
66	225
66	224
66	223
66	222
66	222
66	222
66	222
66	222
66	222
68	222
68	222
68	222
68	222
68	222
68	222
68	222
68	222
68	222
70	222
70	222
70	222
70	222
70	222
71	222
71	222
71	222
71	222
71	222
73	222
73	222
73	222
73	221
73	220
73	219
73	218
73	217
73	216
73	215
73	214
73	213
73	213
73	212
73	211
73	210
73	209
73	209
71	208
71	207
71	206
71	205
71	204
71	203
71	202
70	201
70	201
70	200
70	199
70	198
70	197
71	197
71	197
71	197
71	197
71	196
73	195
73	194
75	193
75	193
75	192
76	191
76	190
78	189
78	189
80	189
80	189
81	189
81	189
83	189
83	188
85	187
85	186
85	185
86	184
86	183
86	182
86	181
86	180
86	180
86	180
86	180
86	180
86	179
85	178
85	177
85	176
83	176
83	175
83	174
81	173
81	172
81	172
80	172
80	172
80	172
78	172
78	172
78	172
78	172
78	172
78	172
78	172
78	172
78	171
78	170
78	169
80	168
80	168
80	167
81	166
81	165
81	164
81	164
83	164
83	164
83	163
85	162
85	161
85	160
85	160
85	159
85	158
85	157
85	156
85	156
85	155
85	154
85	153
85	152
83	152
83	151
83	150
83	149
81	148
81	148
81	148
81	148
80	148
80	148
80	148
80	148
80	148
80	147
80	146
80	145
80	144
80	143
80	142
81	141
81	140
81	139
81	139
83	139
83	139
85	139
85	139
86	139
86	139
88	138
88	137
90	136
90	135
91	135
93	134
93	133
95	132
95	131
96	131
96	131
98	131
98	130
100	129
100	128
101	127
101	127
101	126
101	126
101	125
103	124
103	123
101	123
101	123
101	122
101	121
100	120
100	119
98	119
