-7074.29
-7077.12
-7073.46
-7059.8
-7034.78
-7005.23
-6989.04
-7011.71
-7092.63
-7226.99
-7371.89
-7445.59
-7346.62
-6986.83
-6327.69
-5404.06
-4322.96
-3236.81
-2298.72
-1617.85
-1231.73
-1104.26
-1149.33
-1266.41
-1374.06
-1428.94
-1425.5
-1382.83
-1326.17
-1273.72
-1232.45
-1201.01
-1175.96
-1147.92
-1119.69
-1091.52
-1063.67
-1036.61
-1010.88
-986.812
-964.591
-943.973
-924.614
-906.201
-888.45
-871.268
-854.549
-838.312
-822.636
-807.508
-792.924
-778.754
-764.951
-751.538
-738.528
-725.957
-713.728
-701.76
-690.024
-678.428
-666.911
-655.291
-643.423
-631.249
-618.759
-606.099
-593.418
-580.952
-568.951
-557.529
-546.696
-536.267
-526.037
-515.875
-505.687
-495.539
-485.495
-475.725
-466.433
-457.732
-449.626
-441.858
-434.071
-425.894
-417.054
-407.577
-397.764
-388.218
-379.627
-372.426
-366.652
-361.829
-357.209
-352.06
-345.935
-338.86
-331.223
-323.602
-316.517
-310.161
-304.38
-298.728
-292.803
-286.463
-279.914
-273.707
-268.464
-264.716
-262.692
-262.118
-262.304
-262.266
-261.017
-257.89
-252.665
-245.655
-237.525
-229.109
-221.157
-214.077
-207.925
-202.478
-197.467
-192.74
-188.291
-184.285
-180.881
-178.088
-175.681
-173.233
-170.36
-166.929
-163.404
-160.914
-160.991
-165.095
-173.872
-186.584
-200.891
-213.121
-219.076
-215.153
-199.463
-172.571
-137.573
-99.5003
-64.1721
-36.9056
-21.3394
-18.7168
-27.7796
-45.2549
-66.8133
-88.0921
-105.636
-117.508
-123.462
-124.657
-123
-120.426
-118.297
-117.12
-116.627
-116.152
-115.071
-113.136
-110.578
-107.956
-105.912
-104.87
-104.882
-105.587
-106.414
-106.772
-106.285
-104.922
-102.938
-100.82
-99.0986
-98.1882
-98.28
-99.3003
-100.966
-102.863
-104.53
-105.581
-105.823
-105.322
-104.399
-103.544
-103.267
-103.887
-105.456
-107.713
-110.177
-112.345
-113.848
-114.582
-114.708
-114.531
-114.344
-114.258
-114.167
-113.832
-112.991
-111.479
-109.26
-106.384
-102.906
-98.8148
-94.0409
-88.507
-82.2523
-75.4922
-68.5723
-61.8345
-55.4631
-49.4497
-43.5811
-37.5982
-31.3801
-25.0455
-18.9746
-13.6369
-9.37217
-6.25498
-4.05088
-2.36062
-0.832668
0.647245
1.90752
2.59868
2.40652
1.26071
-0.587185
-2.64074
-4.3358
-5.23018
-5.17617
-4.34815
-3.15329
-2.09324
-1.63812
-2.11676
-3.65138
-6.11242
-9.08377
-11.9511
-13.9959
-14.5726
-13.3304
-10.3624
-6.24387
-1.91371
1.6452
3.69841
3.98977
2.8323
0.967064
-0.733812
-1.59697
-1.35758
-0.226878
1.23444
2.38015
2.72558
2.14405
0.89511
-0.468497
-1.3088
-1.13546
0.249346
2.65501
5.55868
8.26061
10.0963
10.6463
9.86563
8.09628
5.97078
4.16862
3.14489
2.94933
3.18308
3.13475
2.10798
-0.282459
-3.89322
-8.04992
-11.7771
-14.1681
-14.7113
-13.4444
-10.8981
-7.8608
-5.05564
-2.90781
-1.46956
-0.511564
0.301556
1.22419
2.31464
3.42791
4.34784
4.87382
4.93145
4.64524
4.33884
4.39397
5.04234
6.16504
7.08429
6.56148
3.09393
-4.59486
-16.8978
-32.7797
-49.6347
-63.6838
-70.8417
-67.8586
-53.3403
-28.3395
3.72987
37.8271
68.4324
90.8288
102.083
101.53
90.6857
72.655
51.2758
30.2121
12.2668
-0.965079
-9.16646
-13.0393
-13.8727
-13.0882
-11.9216
-11.2234
-11.3843
-12.4336
-14.1568
-16.2009
-18.2008
-19.8455
-20.9521
-21.5023
-21.6559
-21.6991
-21.9447
-22.5926
-23.6631
-24.9656
-26.2144
-27.1487
-27.6914
-28.0292
-28.5554
-29.6969
-31.706
-34.5201
-37.7717
-40.9261
-43.5046
-45.2799
-46.3963
-47.2706
-48.409
-50.1858
-52.7168
-55.8328
-59.214
-62.5278
-65.5366
-68.1567
-70.4181
-72.3931
-74.1197
-75.6038
-76.8478
-77.8698
-78.6795
-79.2366
-79.3986
-78.9244
-77.4872
-74.7918
-70.6767
-65.1727
-58.4816
-50.9374
-42.911
-34.7189
-26.6055
-18.716
-11.1273
-3.92354
2.79036
8.88755
14.222
18.64
22.0543
24.4243
25.7963
26.2693
25.9761
25.0873
23.8185
22.4283
21.1852
20.2947
19.8392
19.7483
19.7987
19.6761
19.1057
17.9374
16.2239
14.2168
12.2852
10.8029
10.045
10.1021
10.8562
12.007
13.1797
14.0479
14.4097
14.2676
13.8202
13.3859
13.2798
13.7361
14.7983
16.2944
17.8885
19.2197
20.0197
20.2127
19.9437
19.5187
19.251
19.3453
19.7955
20.4006
20.8483
20.8656
20.3403
19.4087
18.4193
17.7794
17.8101
18.6048
19.9687
21.488
22.6908
23.2432
23.081
22.3941
21.5422
20.8783
20.6108
20.7276
21.0641
21.4048
21.5982
21.6238
21.5795
21.586
21.6575
21.6648
21.3337
20.3478
18.4846
15.7474
12.4471
9.11919
6.37997
4.72409
4.36171
5.14376
6.64519
8.33939
9.82093
10.9329
11.8069
12.753
14.0843
15.9179
18.1075
20.3122
22.122
23.2811
23.8174
24.0632
24.4466
25.1407
25.7414
25.1142
21.6577
13.799
0.753095
-16.7924
-36.3931
-54.1191
-65.4159
-66.2884
-54.4795
-30.2326
3.54156
41.8394
78.6562
108.299
126.601
131.706
124.257
107.018
84.0484
59.678
37.5349
19.9318
7.649
0.115982
-4.03489
-6.33168
-7.9212
-9.37133
-10.7259
-11.7526
-12.2574
-12.2129
-11.8351
-11.4529
-11.3422
-11.6544
-12.4057
-13.5528
-15.0423
-16.8076
-18.7517
-20.7245
-22.4966
-23.8234
-24.5627
-24.7217
-24.5006
-24.2309
-24.2652
-24.8563
-26.0961
-27.945
-30.3031
-33.1255
-36.4712
-40.4268
-45.0138
-50.0686
-55.2493
-60.0997
-64.2217
-67.4496
-69.8782
-71.8006
-73.5588
-75.3635
-77.2387
-79.0477
-80.6372
-81.9374
-83.016
-83.9973
-84.8917
-85.4643
-85.2012
-83.453
-79.6633
-73.6371
-65.6454
-56.3789
-46.7112
-37.3922
-28.7978
-20.8835
-13.3427
-5.84506
1.7361
9.17687
15.9642
21.5212
25.4455
27.697
28.6191
28.8424
29.056
29.761
31.1221
32.9365
34.7606
36.082
36.5283
35.996
34.6862
33.0153
31.4513
30.3675
29.9031
29.9187
30.0673
29.9409
29.2306
27.8508
25.9906
24.0866
22.6529
22.1214
22.6876
24.2752
26.5454
29.0106
31.1916
32.6929
33.2968
32.9841
31.9175
30.3959
28.8119
27.5958
27.1199
27.589
28.9505
30.8893
32.91
34.4749
35.1957
34.9814
34.0786
32.9767
32.1859
32.0477
32.5777
33.4734
34.241
34.4166
33.789
32.4915
30.965
29.7675
29.3702
29.9325
31.2589
32.8696
34.1719
34.7148
34.3718
33.3699
32.1751
31.2894
31.0516
31.4832
32.3024
33.0407
33.2619
32.7232
31.4405
29.6329
27.6196
25.6644
23.9043
22.3248
20.8581
19.4377
18.0661
16.8036
15.7021
14.7694
13.966
13.2382
12.6013
12.1766
12.184
12.8746
14.3753
16.5867
19.1723
21.6503
23.5195
24.4771
24.5428
24.0381
23.4869
23.4461
24.3149
26.1643
28.5925
30.6549
30.9114
27.7252
19.6704
6.10813
-12.2291
-32.9423
-52.1847
-65.3659
-68.2955
-58.3767
-35.4821
-2.20074
36.6138
74.9227
106.834
127.871
135.788
130.773
115.135
92.5375
67.0766
42.4502
21.3836
5.38952
-5.242
-11.1201
-13.3747
-13.2605
-11.9085
-10.1866
-8.67396
-7.71129
-7.43325
-7.82666
-8.78248
-10.063
-11.4037
-12.5924
-13.516
-14.2246
-14.904
-15.7971
-17.1157
-18.9642
-21.2757
-23.8172
-26.2535
-28.2444
-29.5705
-30.2042
-30.3438
-30.3666
-30.7169
-31.7528
-33.6188
-36.2332
-39.3144
-42.4929
-45.4483
-48.0265
-50.2646
-52.3764
-54.6508
-57.3359
-60.5308
-64.1394
-67.8892
-71.4138
-74.3784
-76.5425
-77.8741
-78.4901
-78.5646
-78.2217
-77.4506
-76.0835
-73.8792
-70.6482
-66.3268
-61.0223
-54.9443
-48.3253
-41.3365
-34.0436
-26.4594
-18.5881
-10.5203
-2.42954
5.46373
12.9014
19.6186
25.3731
29.9235
33.0751
34.7442
35.0179
34.2004
32.7553
31.2003
29.9477
29.17
28.7406
28.35
27.6592
26.4855
24.8867
23.1657
21.7171
20.8843
20.8298
21.4942
22.6142
23.8378
24.832
25.3662
25.3392
24.7891
23.8644
22.7768
21.7604
20.9985
20.5981
20.6056
20.9888
21.666
22.5634
23.6089
24.7542
25.9739
27.2359
28.4701
29.5689
30.3699
30.711
30.4704
29.6188
28.2742
26.701
25.2376
24.2295
23.9099
24.3141
25.2742
26.483
27.5998
28.3464
28.5835
28.3134
27.644
26.7307
25.7176
24.7152
23.8216
23.1542
22.812
22.8489
23.2884
24.0764
25.0719
26.0876
26.8953
27.2619
26.9964
25.9584
24.1333
21.6755
18.8681
16.0926
13.6894
11.8226
10.4383
9.28296
8.05106
6.59531
5.04254
3.8078
3.44351
4.37736
6.69963
10.0662
13.7851
17.0594
19.2375
20.0464
19.6859
18.6946
17.7288
17.3578
17.8739
19.2209
21.0071
22.5552
22.9792
21.261
16.4013
7.67623
-5.03075
-20.9014
-37.965
-53.2141
-63.0838
-64.2423
-54.4897
-33.5202
-3.27345
32.2504
67.7436
97.6637
117.442
124.44
118.484
101.76
78.1805
52.3687
28.5738
9.81723
-2.60786
-9.09254
-11.22
-11.0361
-10.3411
-10.2365
-10.9925
-12.2321
-13.3542
-13.8798
-13.7059
-13.1229
-12.6587
-12.7999
-13.8307
-15.7084
-18.1034
-20.5299
-22.5208
-23.7889
-24.3062
-24.3017
-24.1728
-24.3478
-25.1504
-26.6681
-28.742
-31.054
-33.2381
-35.015
-36.295
-37.223
-38.1455
-39.5117
-41.7395
-45.062
-49.4357
-54.5013
-59.6649
-64.2765
-67.8331
-70.15
-71.4421
-72.2223
-73.0373
-74.271
-75.9441
-77.7171
-79.0639
-79.4947
-78.7707
-77.0105
-74.601
-71.9771
-69.426
-66.9191
-64.1082
-60.4591
-55.4874
-48.9275
-40.8531
-31.6875
-22.0931
-12.8269
-4.56826
2.19456
7.27035
10.7552
12.9964
14.4851
15.7139
17.0555
18.6882
20.5576
22.4315
24.0003
24.9576
25.0959
24.3463
22.7777
20.6101
18.1732
15.8441
13.9967
12.9108
12.6821
13.2108
14.2083
15.2904
16.1111
16.4802
16.3986
16.0492
15.6968
15.5487
15.6971
16.0689
16.5053
16.8525
17.067
17.2377
17.5405
18.146
19.0915
20.2068
21.164
21.5926
21.258
20.1936
18.7263
17.3708
16.6384
16.8097
17.8083
19.2418
20.5635
21.3246
21.3729
20.9018
20.3399
20.1412
20.5642
21.5224
22.6434
23.4373
23.5133
22.7795
21.4517
19.9507
18.7007
17.9435
17.6514
17.5919
17.4935
17.2113
16.8496
16.7115
17.1322
18.2888
20.0615
22.0213
23.5682
24.1373
23.3987
21.3698
18.3649
14.8372
11.2087
7.75564
4.57557
1.68093
-0.873691
-2.88827
-4.0215
-3.88325
-2.19811
1.05543
5.58009
10.7847
15.921
20.2919
23.3964
25.0139
25.244
24.4051
22.9229
21.254
19.7745
18.7482
18.2277
17.9409
17.1555
14.7257
9.35175
-0.00735934
-13.5315
-30.0556
-46.9163
-60.2914
-66.0543
-60.8872
-43.3177
-14.3627
22.4273
61.6383
97.1206
123.317
136.475
135.384
121.484
98.363
70.8359
43.7791
21.0746
4.9502
-4.2214
-7.62707
-7.35257
-5.64065
-4.2349
-4.05663
-5.2055
-7.22238
-9.4525
-11.3511
-12.7413
-13.777
-14.8355
-16.3088
-18.4001
-21.0216
-23.7745
-26.0862
-27.4296
-27.5599
-26.6221
-25.1343
-23.8294
-23.3994
-24.2455
-26.3609
-29.3751
-32.6825
-35.6975
-38.0723
-39.8045
-41.1862
-42.7025
-44.8418
-47.9212
-51.9897
-56.8114
-61.9476
-66.8874
-71.1735
-74.4949
-76.7568
-78.0797
-78.7434
-79.0908
-79.4477
-80.0447
-80.9701
-82.169
-83.4616
-84.5971
-85.2961
-85.2903
-84.3562
-82.2933
-78.9071
-74.009
-67.4354
-59.0934
-49.0917
-37.8054
-25.8742
-14.1093
-3.34103
5.79736
13.0152
18.3702
22.1877
24.879
26.765
28.023
28.7011
28.8016
28.4017
27.7178
27.0694
26.7509
26.9289
27.5533
28.3576
28.9659
29.04
28.4254
27.199
25.663
24.2498
23.3525
23.1804
23.6841
24.5692
25.3662
25.6052
24.9905
23.5099
21.457
19.3514
17.7973
17.228
17.7977
19.3088
21.3261
23.3416
24.945
25.9512
26.4144
26.5572
26.6176
26.7293
26.8761
26.9192
26.7072
26.1721
25.4139
24.6977
24.3276
24.5305
25.3302
26.5028
27.6634
28.4125
28.4861
27.86
26.7271
25.3995
24.1595
23.1619
22.4255
21.8847
21.4442
21.0555
20.738
20.5376
20.4767
20.5262
20.6402
20.7731
20.9147
21.0642
21.22
21.3257
21.2172
20.6688
19.4558
17.4232
14.5834
11.1363
7.44874
4.00042
1.2693
-0.337691
-0.599484
0.470095
2.60449
5.33692
8.10984
10.441
12.0675
13.022
13.5771
14.0863
14.7476
15.4788
15.9639
15.8084
14.7776
13.055
11.2753
10.327
10.8901
12.9925
15.6411
16.9055
14.4739
6.44751
-7.72324
-26.6257
-46.8497
-63.661
-72.1982
-68.8177
-52.1365
-23.5076
13.1895
52.3981
88.0766
114.948
129.489
130.499
119.166
98.6514
73.2737
47.4912
24.9834
8.01524
-2.83099
-8.41783
-10.4566
-10.7927
-10.823
-11.2537
-12.1295
-13.1331
-13.8899
-14.2241
-14.2672
-14.3324
-14.7848
-15.8777
-17.6403
-19.8665
-22.152
-23.9951
-24.9546
-24.8652
-23.8933
-22.5421
-21.4804
-21.329
-22.423
-24.6969
-27.7509
-31.0462
-34.1576
-36.8801
-39.2728
-41.5319
-43.8565
-46.3407
-48.9575
-51.6368
-54.3371
-57.0883
-59.95
-62.9201
-65.8728
-68.5594
-70.7088
-72.1707
-72.9865
-73.3967
-73.7739
-74.4643
-75.6389
-77.2188
-78.9028
-80.2297
-80.6891
-79.8133
-77.2559
-72.8221
-66.5078
-58.5166
-49.2592
-39.3037
-29.2527
-19.6429
-10.8303
-2.96064
4.01446
10.2311
15.7872
20.6829
24.7752
27.8604
29.7888
30.5929
30.5157
29.9582
29.3766
29.1698
29.5277
30.3981
31.5173
32.5139
32.9915
32.6696
31.4657
29.53
27.2193
25.0182
23.3867
22.6454
22.8908
23.9581
25.5019
27.1037
28.3926
29.1397
29.2935
28.9832
28.4419
27.9421
27.7033
27.8411
28.3713
29.2015
30.182
31.1296
31.8549
32.1874
32.0255
31.3731
30.3861
29.3668
28.6884
28.6662
29.4472
30.9215
32.7369
34.4076
35.4784
35.6797
35.0168
33.7407
32.2127
30.7649
29.5597
28.578
27.6889
26.7743
25.863
25.1453
24.9201
25.439
26.7565
28.6466
30.6128
32.036
32.3489
31.1916
28.5433
24.7218
20.2993
15.9305
12.2067
9.50032
7.94025
7.4363
7.77106
8.72985
10.168
12.0101
14.2318
16.7826
19.5358
22.265
24.7126
26.6271
27.8888
28.5017
28.5945
28.3811
28.1072
27.9493
27.8945
27.6713
26.6824
24.0322
18.7281
9.95443
-2.44384
-17.5641
-33.3118
-46.5932
-53.9083
-52.2068
-39.8058
-17.0263
13.6118
47.8165
80.3654
106.23
121.671
124.997
116.834
99.8036
77.7599
54.8195
34.4144
18.6998
8.31554
2.65951
0.409186
0.119441
0.629884
1.2328
1.62518
1.70669
1.42763
0.735922
-0.390056
-1.84207
-3.40721
-4.87451
-6.1298
-7.22121
-8.3102
-9.54343
-10.9336
-12.3018
-13.3783
-13.9875
-14.181
-14.2361
-14.5563
-15.472
-17.0557
-19.084
-21.1344
-22.7715
-23.7665
-24.1947
-24.4029
-24.8813
-26.0327
-28.0126
-30.6795
-33.6684
-36.5346
-38.9231
-40.6873
-41.8968
-42.7458
-43.4399
-44.084
-44.6368
-44.9432
-44.8295
-44.1758
-42.9697
-41.2771
-39.2078
-36.8561
-34.2555
-31.3801
-28.1705
-24.5619
-20.4689
-15.7836
-10.3815
-4.15833
2.88896
10.6233
18.724
26.7205
34.1168
40.5159
45.712
49.698
52.6226
54.6879
56.0457
56.7505
56.7901
56.1502
54.8795
53.1429
51.2164
49.4076
47.9958
47.1346
46.7736
46.6847
46.5259
45.9904
44.946
43.4933
41.9474
40.7286
40.1826
40.4143
41.2403
42.2655
43.0673
43.3393
43.0233
42.2984
41.4952
40.9279
40.7756
41.0494
41.6108
42.2449
42.7187
42.8661
42.5911
41.8606
40.6921
39.1448
37.3143
35.3604
33.5051
32.0089
31.1615
31.1969
32.2189
34.1167
36.5175
38.8296
40.402
40.6844
39.4082
36.666
32.8915
28.6531
24.4451
20.5463
17.0144
13.8184
11.0226
8.88929
7.82962
8.20191
10.0796
13.0786
16.4528
19.334
21.0483
21.3749
20.5995
19.3304
18.2606
17.8731
18.2965
19.3556
20.7373
22.1559
23.3739
24.1225
23.9263
22.0126
17.4238
9.30378
-2.61896
-17.561
-33.5221
-47.4804
-55.956
-55.888
-45.4562
-24.7069
4.22794
37.4592
70.0757
97.1365
114.689
120.578
114.814
99.4212
77.8564
54.1296
31.8877
13.7611
0.967936
-6.59875
-9.97361
-10.6097
-9.90221
-8.90815
-8.25687
-8.20255
-8.77095
-9.82184
-11.1897
-12.6993
-14.2052
-15.6847
-17.275
-19.2176
-21.7465
-24.8899
-28.3614
-31.5803
-33.8327
-34.5709
-33.6934
-31.6403
-29.2964
-27.7024
-27.6717
-29.5122
-32.9789
-37.3677
-41.8223
-45.6571
-48.5428
-50.5738
-52.1929
-53.9451
-56.2681
-59.3717
-63.1731
-67.3608
-71.5038
-75.2249
-78.3154
-80.7639
-82.7374
-84.4652
-86.1176
-87.6931
-89.0022
-89.7448
-89.6204
-88.4348
-86.1535
-82.8723
-78.7054
-73.6983
-67.7986
-60.8937
-52.9476
-44.113
-34.7503
-25.3804
-16.5317
-8.62573
-1.884
3.67055
8.14116
11.6626
14.3408
16.2653
17.5342
18.2939
18.7341
19.0364
19.3255
19.6222
19.8376
19.8226
19.4447
18.6572
17.53
16.2248
14.9274
13.7697
12.7623
11.8104
10.7838
9.6068
8.34025
7.17906
6.3868
6.18175
6.62368
7.58523
8.78584
9.95048
10.9166
11.6865
12.4266
13.3725
14.6705
16.2822
17.9766
19.4006
20.1901
20.1309
19.2618
17.8551
16.354
15.2341
14.8597
15.3751
16.6524
18.3501
20.0421
21.3759
22.2048
22.6134
22.8223
23.0372
23.2577
23.1967
22.3546
20.2271
16.5863
11.6747
6.22776
1.28316
-2.13087
-3.33183
-2.19801
0.807873
4.82279
8.9067
12.3118
14.6961
16.1249
16.9515
17.5757
18.2764
19.0814
19.8385
20.3275
20.394
20.0492
19.5045
19.1171
19.21
19.8243
20.5291
20.3096
17.7529
11.4029
0.367884
-15.0557
-32.9938
-50.0759
-62.054
-64.8341
-55.6375
-33.9536
-1.91385
36.011
73.9588
105.968
127.284
135.302
129.944
113.457
89.6717
63.0396
37.6347
16.435
0.935616
-8.83812
-13.9404
-15.93
-16.2857
-16.0678
-15.8107
-15.6518
-15.5886
-15.6236
-15.8984
-16.5984
-17.8313
-19.5194
-21.4383
-23.2844
-24.8099
-25.9141
-26.6801
-27.3369
-28.1257
-29.2101
-30.6222
-32.2604
-33.956
-35.5689
-37.0593
-38.5303
-40.1644
-42.135
-44.5146
-47.2287
-50.0979
-52.9201
-55.5862
-58.1414
-60.8064
-63.866
-67.5516
-71.8953
-76.6501
-81.3373
-85.3816
-88.3244
-90.0014
-90.6231
-90.7181
-90.9477
-91.8707
-93.7049
-96.1894
-98.5713
-99.8228
-98.9049
-95.0613
-88.0509
-78.2404
-66.5136
-54.0219
-41.8754
-30.8637
-21.3117
-13.0989
-5.85015
0.836126
7.18311
13.1676
18.5422
22.9958
26.2972
28.3992
29.4415
29.6698
29.3293
28.628
27.6919
26.6318
25.5658
24.6644
24.096
23.9937
24.3764
25.1482
26.0975
26.9645
27.5231
27.6406
27.3174
26.6558
25.8273
25.0024
24.3006
23.7697
23.3825
23.0689
22.7795
22.5182
22.3679
22.4286
22.7867
23.5048
24.5779
25.9455
27.5062
29.1435
30.731
32.0898
33.0227
33.3458
32.9655
31.901
30.3536
28.6704
27.2795
26.5536
26.6825
27.6167
29.0626
30.5965
31.8031
32.4072
32.3633
31.8155
31.0085
30.1384
29.2408
28.1736
26.6846
24.5386
21.6476
18.1619
14.4869
11.1494
8.65218
7.36908
7.42217
8.68173
10.8318
13.4904
16.2861
18.9364
21.2499
23.1281
24.5289
25.4157
25.729
25.4623
24.6846
23.5908
22.5527
22.0769
22.6644
24.5577
27.4723
30.4034
31.7045
29.4538
22.0685
9.00988
-8.67807
-28.2072
-45.5196
-56.154
-56.4338
-44.4919
-20.8651
11.4551
47.6519
82.117
109.649
126.445
130.78
123.194
106.196
83.5887
59.5905
37.9405
21.2007
10.3467
4.82143
3.02994
2.98535
2.9929
2.07901
0.0691674
-2.63263
-5.41689
-7.78885
-9.57922
-10.9009
-12.0024
-13.094
-14.2716
-15.4774
-16.5732
-17.4158
-17.8928
-17.9734
-17.7137
-17.2603
-16.8477
-16.79
-17.42
-19.0014
-21.6329
-25.1836
-29.3098
-33.5164
-37.3266
-40.4085
-42.664
-44.2361
-45.485
-46.8184
-48.5891
-51.0118
-54.0809
-57.5886
-61.1982
-64.5457
-67.3743
-69.6432
-71.5087
-73.2578
-75.1672
-77.373
-79.7918
-82.091
-83.7524
-84.2301
-83.0448
-79.8884
-74.6759
-67.5594
-58.8945
-49.1706
-38.9324
-28.6913
-18.8428
-9.6414
-1.22334
6.32267
12.895
18.3677
22.6159
25.5962
27.4313
28.4391
29.0527
29.6793
30.56
31.6966
32.857
33.7516
34.1944
34.2011
33.9967
33.8597
33.9499
34.2121
34.3398
33.9293
32.6599
30.4722
27.6243
24.6313
22.0836
20.46
20.0031
20.6819
22.2551
24.3818
26.7047
28.9372
30.8612
32.2632
32.9521
32.7745
31.6873
29.8428
27.622
25.586
24.3388
24.2822
25.4907
27.6323
30.0549
32.0401
33.0514
32.9385
32.0048
30.8366
30.0619
30.1004
31.0029
32.4645
33.9414
34.8885
34.9476
34.0644
32.4507
30.4983
28.6558
27.2842
26.5873
26.561
27.024
27.7034
28.3243
28.6751
28.6357
28.1658
27.2841
25.9975
24.2963
22.2063
19.8384
17.4223
15.2924
13.8077
13.2322
13.611
14.7384
16.2274
17.6501
18.6917
19.2521
19.4518
19.5636
19.8692
20.52
21.5045
22.6681
23.8112
24.8348
25.7842
26.7942
27.9173
28.9082
29.0383
27.126
21.8384
12.1761
-1.89371
-19.0483
-36.5516
-50.7
-57.6661
-54.5375
-40.2084
-15.8173
15.3614
48.5831
78.6637
101.103
112.981
113.457
103.771
86.7928
66.2185
45.7043
28.0767
14.9228
6.48645
1.96615
0.0518203
-0.588873
-0.928272
-1.47975
-2.34835
-3.41311
-4.50485
-5.49827
-6.34019
-6.98615
-7.42912
-7.68856
-7.82063
-7.9298
-8.1497
-8.60147
-9.35792
-10.4415
-11.8394
-13.5257
-15.4429
-17.4772
-19.4508
-21.1275
-22.2904
-22.8587
-22.9601
-22.9505
-23.2861
-24.3811
-26.4342
-29.337
-32.7169
-36.0708
-38.9719
-41.2457
-43.0134
-44.6457
-46.6021
-49.2063
-52.5092
-56.2424
-59.8965
-62.8897
-64.776
-65.3828
-64.8201
-63.3895
-61.4322
-59.1895
-56.726
-53.9214
-50.5927
-46.5956
-41.9191
-36.6637
-30.9772
-24.99
-18.7438
-12.2044
-5.35866
1.68301
8.64716
15.1314
20.726
25.1587
28.3702
30.5299
31.9557
32.9534
33.7078
34.2363
34.3959
33.99
32.9011
31.171
28.9924
26.6668
24.5065
22.7086
21.3204
20.2707
19.4564
18.7995
18.3114
18.0708
18.171
18.6368
19.3477
20.0496
20.4369
20.2548
19.4032
18.0057
16.3924
14.9745
14.1101
13.9608
14.4531
15.3313
16.2912
17.1254
17.8274
18.5298
19.4126
20.5417
21.7701
22.7532
23.1334
22.7214
21.6243
20.2275
19.0506
18.4665
18.5286
18.9366
19.1818
18.8118
17.6843
16.0637
14.5163
13.7015
14.0671
15.664
18.1063
20.6985
22.6747
23.4471
22.7805
20.8302
18.0505
15.0272
12.2684
10.0349
8.27254
6.68791
4.93313
2.79493
0.369956
-1.91044
-3.41585
-3.56502
-2.06904
0.930797
4.87071
8.9685
12.4829
14.8951
16.0303
16.022
15.2171
14.0364
12.8779
12.0917
11.9854
12.7774
14.4437
16.5987
18.3495
18.3523
15.1083
7.39986
-5.0815
-21.2824
-38.668
-53.5806
-62.0143
-60.6277
-47.7403
-23.9424
7.83349
42.8689
75.6416
101.032
115.415
117.348
107.743
89.5176
66.7613
43.7765
24.1007
9.87072
1.53266
-1.95581
-2.51996
-2.2193
-2.57859
-4.22284
-6.88597
-9.78151
-12.0627
-13.219
-13.2893
-12.7298
-12.1407
-12.0242
-12.6276
-13.8959
-15.5796
-17.3966
-19.1288
-20.6745
-22.036
-23.2663
-24.4484
-25.6618
-26.9861
-28.4693
-30.1029
-31.8148
-33.4866
-34.9823
-36.2058
-37.189
-38.1182
-39.3121
-41.1371
-43.8647
-47.5509
-51.9925
-56.7901
-61.4535
-65.5795
-68.9787
-71.722
-74.0804
-76.3818
-78.8339
-81.4048
-83.815
-85.6373
-86.4257
-85.8694
-83.8549
-80.4307
-75.7483
-69.9811
-63.2878
-55.8584
-47.9801
-40.0402
-32.4831
-25.665
-19.697
-14.3992
-9.34109
-4.02725
1.85891
8.29975
14.8847
20.943
25.7423
28.7864
29.9626
29.5923
28.3091
26.8241
25.7174
25.2487
25.3089
25.5532
25.5562
25.0179
23.8786
22.3287
20.7043
19.3255
18.3581
17.7953
17.4801
17.2248
16.9341
16.6348
16.4573
16.5439
16.9065
17.4081
17.8055
17.8615
17.4628
16.6973
15.8223
15.1694
14.9868
15.3541
16.158
17.184
18.2069
19.1023
19.8659
20.5778
21.3456
22.1739
22.9519
23.4946
23.5839
23.0817
21.9786
20.4204
18.6926
17.1355
16.0504
15.6456
15.9877
16.978
18.3929
19.9293
21.2915
22.2451
22.6985
22.6808
22.357
21.9393
21.6083
21.4183
21.2761
20.9568
20.2023
18.8501
16.946
14.7964
12.9233
11.8892
12.0907
13.6022
16.1421
19.0947
21.7343
23.4217
23.769
22.6939
20.3631
17.0788
13.2057
9.10905
5.12563
1.59422
-1.14331
-2.82406
-3.33155
-2.72581
-1.28466
0.57216
2.40986
3.88503
4.82992
5.26412
5.37709
5.4394
5.72266
6.40683
7.54112
9.0274
10.5922
11.8589
12.5262
12.4914
11.9222
11.2906
11.2198
12.2289
14.3741
17.0117
18.7563
17.755
12.2355
1.14446
-15.209
-34.8473
-54.3161
-69.3663
-75.9314
-71.2039
-54.4343
-27.2175
6.7602
42.5031
74.7601
99.072
112.567
114.375
105.573
88.7523
67.3724
44.9683
24.5036
7.94921
-3.92593
-11.4287
-15.5907
-17.7112
-18.9532
-20.0895
-21.4189
-22.8801
-24.2351
-25.213
-25.6585
-25.5388
-24.9581
-24.135
-23.344
-22.8786
-22.9873
-23.7571
-25.0558
-26.5528
-27.85
-28.6299
-28.8141
-28.6558
-28.642
-29.3199
-31.0617
-33.8767
-37.4655
-41.3073
-44.9092
-47.983
-50.5251
-52.7696
-55.0085
-57.4431
-60.0753
-62.7409
-65.261
-67.599
-69.8897
-72.4362
-75.5849
-79.5436
-84.2616
-89.3961
-94.4596
-98.9407
-102.391
-104.489
-105.029
-103.894
-100.984
-96.2715
-89.8667
-82.0146
-73.1089
-63.6295
-54.0382
-44.73
-35.961
-27.871
-20.5307
-13.9334
-8.01745
-2.6229
2.51033
7.71507
13.2885
19.3457
25.6987
31.8544
37.1025
40.7519
42.3863
41.9828
39.9428
36.9489
33.7213
30.8571
28.7247
27.4523
27.0176
27.3339
28.2449
29.555
31.0081
32.2686
33.0269
33.1245
32.6371
31.8808
31.2978
31.2404
31.8365
32.8857
33.9625
34.6169
34.6268
34.1469
33.6632
33.7408
34.7334
36.6069
38.9344
41.0786
42.435
42.6984
41.9142
40.4329
38.7146
37.1081
35.742
34.5725
33.4754
32.3932
31.4632
31.031
31.4863
33.0943
35.8099
39.1683
42.35
44.4074
44.5447
42.3881
38.1355
32.4883
26.4502
21.0919
17.2853
15.5502
15.9752
18.2676
21.8337
25.882
29.5416
32.0117
32.7185
31.4391
28.4226
24.279
19.8179
15.8513
12.9846
11.4884
11.3622
12.4388
14.4851
17.2558
20.4927
23.8897
27.0455
29.5209
30.964
31.2101
30.2832
28.3867
25.7804
22.6523
19.1183
15.2542
11.2269
7.37844
4.19899
2.23746
1.91157
3.32387
6.17004
9.78919
13.3168
15.9589
17.2289
17.0752
15.8363
14.1044
12.4466
11.2135
10.4142
9.81381
9.11103
8.19056
7.22607
6.63401
6.95197
8.6134
11.7688
16.1198
20.8858
24.837
26.3916
24.0189
16.6244
4.10011
-12.2943
-29.92
-45.148
-54.2589
-54.4021
-44.399
-25.094
0.816921
29.4829
56.761
78.974
93.5032
99.0941
95.901
85.3167
69.7059
51.9814
34.9509
20.7872
10.5483
4.08132
0.337861
-2.10733
-4.44403
-7.25281
-10.4468
-13.477
-15.6071
-16.1408
-14.589
-10.7181
-4.63072
3.03938
11.0996
17.8814
21.7079
21.444
16.9418
9.19559
0.00764207
-8.64893
-15.3534
-19.6742
-22.1325
-23.7141
-25.3176
-27.2694
-29.2605
-30.6426
-30.8368
-29.7297
-27.7936
-25.9037
-25.1206
-26.2438
-29.636
-35.1011
-41.9165
-48.9353
-54.8425
-58.517
-59.4118
-57.7616
-54.6445
-51.624
-50.2403
-51.3823
-54.9949
-60.047
-64.8533
-67.7037
-67.4757
-63.9371
-57.7954
-50.3672
-42.9703
-36.5354
-31.378
-27.2158
-23.4298
-19.38
-14.5957
-8.88799
-2.31592
4.82415
12.1494
19.1119
25.0879
29.526
32.0586
32.6482
31.5681
29.3702
26.7963
24.5137
22.9377
22.1907
22.0866
22.2254
22.2638
22.0813
21.7652
21.5146
21.5647
22.0138
22.7581
23.646
24.5354
25.2765
25.7362
25.6631
24.7401
22.7201
19.5899
15.657
11.6381
8.48704
7.12897
8.16756
11.6525
17.007
23.195
28.9264
33.0622
34.9513
34.4973
32.1229
28.6035
24.784
21.4393
19.1794
18.4215
19.2951
21.585
24.6962
27.7366
29.6912
29.8258
27.972
24.5269
20.3618
16.5256
13.9279
13.089
14.1416
16.8976
21.0325
26.052
31.3228
35.9428
38.7642
38.722
35.1903
28.3249
19.242
9.81779
2.09309
-2.41931
-3.20378
-0.782381
3.58957
8.43712
12.6986
15.8718
17.9339
19.0711
19.4261
19.0848
18.1483
16.8748
15.6938
15.1523
15.7147
17.4767
20.1405
23.1537
25.8684
27.599
27.7019
25.6271
20.8882
13.1935
2.68567
-9.79031
-22.5758
-33.3869
-39.7664
-39.6907
-32.2574
-18.0503
0.838506
21.2135
39.5487
52.9291
59.6842
59.6793
54.2081
45.4856
35.9446
27.4482
20.9724
16.5462
13.5308
11.0387
8.32859
5.10197
1.51287
-2.02378
-5.04983
-7.1891
-8.24637
-8.17037
-6.92283
-4.48494
-0.928248
3.42583
7.8175
11.0811
11.9774
9.59442
3.80957
-4.46574
-13.388
-20.7546
-24.7254
-24.4681
-20.4492
-14.3276
-8.38616
-4.77297
-4.75624
-8.32549
-14.2377
-20.4728
-24.9517
-26.2259
-23.9964
-19.2532
-13.888
-10.06
-9.51083
-13.0607
-20.3865
-30.1958
-40.7059
-50.1684
-57.2576
-61.2435
-62.0493
-60.1062
-56.2434
-51.4958
-46.9211
-43.3656
-41.2146
-40.2051
-39.4585
-37.8557
-34.5678
-29.5139
-23.4298
-17.6082
-13.2573
-10.8746
-10.0037
-9.43253
-7.78542
-4.23683
1.14352
7.5092
13.6751
18.65
22.0126
23.9325
24.9076
25.4331
25.8112
26.1104
26.2742
26.2174
25.8859
25.2099
24.0634
22.2801
19.7438
16.476
12.6951
8.75784
5.07472
2.01033
-0.211322
-1.50679
-1.88629
-1.3541
0.0441467
2.12303
4.51506
6.64196
7.83627
7.59896
5.81246
2.85853
-0.498171
-3.34787
-4.95937
-5.04983
-3.81388
-1.72142
0.675934
2.96895
5.01902
6.85007
8.49273
9.83905
10.6108
10.4574
9.10682
6.52464
3.01126
-0.861042
-4.43368
-7.18104
-8.78652
-9.12989
-8.20276
-5.99171
-2.51842
2.07207
7.38403
12.7435
17.2283
19.9045
20.1129
17.6883
13.083
7.26253
1.50466
-2.91502
-5.06388
-4.61209
-1.91219
2.15086
6.43865
9.90453
11.9322
12.4936
12.0845
11.4391
11.2074
11.6598
12.5212
13.0901
12.4655
9.95776
5.48976
-0.263503
-6.0181
-10.3426
-12.2171
-11.5928
-9.51483
-7.87911
-8.72017
-13.2752
-21.282
-30.7731
-38.4883
-40.8373
-35.1175
-20.4828
1.64364
27.8708
53.774
75.1153
88.8918
93.9656
91.027
82.0555
69.5292
55.6837
42.0908
29.5823
18.5858
9.37407
2.27104
-2.32052
-4.12697
-3.24361
-0.2969
3.68354
7.47417
10.0873
10.9976
10.1854
8.06977
5.25527
2.30768
-0.347978
-2.47969
-3.97942
-4.86506
-5.3018
-5.61673
-6.23389
-7.54161
-9.72479
-12.64
-15.8936
-18.9618
-21.4687
-23.4016
-25.1082
-27.1257
-29.8924
-33.5195
-37.7478
-42.0426
-45.8171
-48.7212
-50.7383
-52.119
-53.2953
-54.6555
-56.4245
-58.6355
-61.1752
-63.915
-66.7343
-69.5177
-72.1165
-74.3167
-75.847
-76.4164
-75.7813
-73.8327
-70.6553
-66.5043
-61.6865
-56.4694
-50.9963
-45.2405
-39.0238
-32.1526
-24.5489
-16.4159
-8.23865
-0.662096
5.74703
10.6773
14.187
16.677
18.636
20.2955
21.5152
21.9038
21.0683
18.9623
16.0681
13.3631
11.9599
12.6203
15.3621
19.4373
23.5981
26.6245
27.7739
27.0842
25.2915
23.4909
22.6297
23.1444
24.8482
27.0846
29.0404
30.0356
29.7022
28.0429
25.3586
22.1269
18.8172
15.8481
13.5565
12.1815
11.8334
12.5367
14.2517
16.8366
20.0157
23.3586
26.3449
28.448
29.3027
28.86
27.4664
25.7921
24.625
24.5871
25.8755
28.1381
30.5648
32.1889
32.2942
30.691
27.8732
24.8443
22.6665
22.0576
23.093
25.2197
27.4884
28.9497
29.0085
27.5715
24.9637
21.6556
18.1186
14.6668
11.5893
9.22283
8.02556
8.45567
10.752
14.7141
19.6541
24.5482
28.418
30.7186
31.5311
31.4384
31.1567
31.1456
31.4056
31.5017
30.9494
29.6129
27.8983
26.5996
26.4189
27.3896
28.4901
27.8149
23.19
13.1027
-2.42546
-21.3791
-39.941
-53.2725
-56.8064
-47.5133
-24.9282
8.46323
47.5956
85.978
117.216
136.614
142.218
135.043
118.432
96.8261
74.4133
54.1101
37.2588
23.9659
13.6607
5.7093
-0.269855
-4.41314
-6.8459
-7.91611
-8.17117
-8.21439
-8.455
-8.97446
-9.59595
-10.067
-10.2613
-10.2693
-10.3425
-10.7582
-11.6525
-12.9365
-14.3449
-15.4927
-15.9902
-15.5682
-14.1941
-12.1673
-10.2045
-9.33669
-10.6304
-14.7458
-21.5777
-30.1457
-38.8039
-45.7711
-49.7938
-50.5596
-48.7532
-45.7726
-43.1911
-42.2173
-43.3939
-46.6071
-51.3448
-57.0603
-63.3369
-69.8842
-76.3739
-82.248
-86.5991
-88.3917
-86.8565
-81.9155
-74.4067
-65.9946
-58.6222
-53.8355
-52.1513
-52.8461
-54.2363
-54.3219
-51.5541
-45.3694
-36.3527
-25.8885
-15.5071
-6.27683
1.51143
8.30649
14.8784
21.7887
28.9935
35.7673
40.9731
43.4895
42.7836
39.2649
34.1603
29.0615
25.3873
23.8215
24.064
25.0296
25.4624
24.5086
22.0707
18.761
15.4658
12.8863
11.2113
10.1265
9.12637
7.90263
6.53765
5.44288
5.09717
5.7182
7.08171
8.66444
9.97941
10.8712
11.63
12.8823
15.2801
19.1724
24.451
30.6027
36.9224
42.6589
47.1551
49.9106
50.5417
48.8215
44.8364
39.1583
32.7578
26.8176
22.4585
20.416
20.8465
23.2804
26.8133
30.4053
33.2245
34.8603
35.3779
35.1712
34.6234
33.8143
32.4449
29.9571
25.8554
20.0824
13.3097
6.83957
2.18827
0.571792
2.42052
7.11444
13.1949
18.8282
22.4747
23.406
21.8459
18.7438
15.3487
12.6525
11.0539
10.3671
10.0807
9.61218
8.50905
6.5618
3.79947
0.403666
-3.41822
-7.51879
-11.8988
-16.7691
-22.5426
-29.7129
-38.576
-48.8355
-59.3183
-67.9693
-72.226
-69.6797
-58.8536
-39.9455
-15.1269
11.8474
36.4742
54.6899
63.8674
63.4295
54.8238
40.9769
25.3545
11.0106
-0.0737308
-7.15981
-10.633
-11.5809
-11.1529
-10.1954
-9.16434
-8.19883
-7.27813
-6.46396
-5.95183
-6.03533
-6.9739
-8.87345
-11.5539
-14.5757
-17.3872
-19.412
-20.2135
-19.5916
-17.7282
-15.172
-12.7407
-11.2907
-11.4826
-13.6026
-17.3564
-22.0043
-26.6031
-30.3193
-32.7215
-33.9039
-34.33
-34.6542
-35.407
-36.7915
-38.6841
-40.8428
-43.1197
-45.6129
-48.5626
-52.1571
-56.3071
-60.4029
-63.419
-64.3034
-62.4499
-58.0666
-52.242
-46.6902
-43.1084
-42.5805
-45.2382
-50.2153
-55.9566
-60.7645
-63.3063
-62.8321
-59.2735
-53.0109
-44.6626
-34.9125
-24.4409
-13.972
-4.27336
3.95024
10.28
14.7508
17.82
20.1454
22.3287
24.6438
26.8126
28.217
28.2646
26.7288
23.9263
20.7392
18.3096
17.6238
19.1489
22.6482
27.2505
31.6726
34.6444
35.2907
33.4069
29.4808
24.5204
19.6953
16.0106
13.9022
13.1861
13.2082
13.1083
12.1938
10.0812
6.92025
3.21125
-0.447098
-3.5189
-5.47153
-5.83642
-4.26139
-0.546682
5.0753
11.7756
18.2206
22.9409
24.8055
23.6024
20.2863
16.6166
14.5385
15.4342
19.5929
26.1791
33.6102
40.2065
44.7229
46.588
45.8406
42.8166
38.0047
32.0251
25.5606
19.358
14.1184
10.3472
8.12326
6.95564
6.00105
4.53022
2.24275
-0.624908
-3.2676
-4.62935
-3.84336
-0.480124
5.30271
12.7728
20.8909
28.5526
34.7132
38.6038
39.8092
38.1965
33.8329
26.9317
17.8427
7.14613
-4.10088
-14.1876
-20.9642
-22.2169
-16.4095
-3.48448
14.8363
35.3037
53.7966
66.4882
70.9169
66.587
55.0671
39.5378
23.7446
11.0646
3.67052
2.11583
5.43808
11.7128
18.6498
24.2735
27.3151
27.3698
24.754
20.2099
14.7297
9.38832
5.16383
2.80314
2.69383
4.7342
8.16849
11.6393
13.5917
12.807
8.86707
2.46251
-4.70576
-10.5511
-13.3256
-12.2078
-7.73481
-1.64073
3.88451
6.88878
6.42887
2.92627
-1.92209
-5.83905
-6.88652
-4.40964
0.635647
5.94423
8.72079
6.83711
-0.278419
-11.3594
-23.8421
-34.8301
-42.0354
-44.4658
-42.6529
-38.2431
-33.2429
-29.3383
-27.4291
-27.4616
-28.4823
-29.0654
-27.9094
-24.309
-18.4297
-11.4404
-5.18967
-1.42684
-1.21521
-4.40044
-9.55868
-14.4153
-16.6329
-14.7004
-8.3981
1.13484
11.776
21.1687
27.4665
29.7952
28.2961
24.0599
18.749
14.1046
11.4733
11.5077
14.076
18.4285
23.401
27.7478
30.4673
30.988
29.0961
24.9688
19.2381
12.8785
6.94256
2.35625
-0.347571
-1.28136
-1.14448
-0.898922
-1.35124
-2.74576
-4.6778
-6.13236
-6.01424
-3.55075
1.3289
7.81108
14.4013
19.2823
20.9388
18.6087
12.5919
4.24464
-4.34142
-10.9576
-14.0081
-13.0252
-8.79368
-2.99838
2.43999
6.16654
7.96752
8.72144
9.8513
12.3844
16.304
20.2982
22.2567
20.2186
13.3266
2.29291
-10.7423
-22.9853
-31.9492
-36.2442
-35.717
-31.2701
-24.3197
-16.2537
-8.23466
-1.21481
3.96422
6.59327
6.19947
2.81028
-2.83524
-9.40274
-15.2843
-19.1184
-20.1864
-18.6745
-15.5613
-12.2086
-9.91076
-9.57904
-11.5688
-15.7608
-21.7526
-28.9468
-36.5736
-43.6383
-48.8723
-50.8055
-48.0772
-39.9506
-26.7487
-10.0473
7.4261
22.4627
32.2181
35.0342
30.9158
21.4878
9.49648
-2.17159
-11.3065
-16.8974
-19.1994
-19.332
-18.6639
-18.2117
-18.3928
-19.1302
-20.043
-20.8202
-21.3783
-21.7897
-22.1465
-22.4353
-22.5409
-22.3234
-21.7779
-21.121
-20.6823
-20.6885
-21.1284
-21.717
-22.0209
-21.7703
-21.0693
-20.451
-20.6503
-22.2647
-25.3601
-29.3342
-33.1718
-35.8563
-36.8471
-36.3238
-35.0434
-34.0077
-33.9442
-35.053
-37.0999
-39.6866
-42.6455
-46.152
-50.579
-56.1332
-62.5139
-68.8498
-73.9092
-76.5473
-76.2061
-73.1299
-68.2456
-62.7966
-57.892
-54.1023
-51.3851
-49.2728
-47.1432
-44.5425
-41.3785
-37.8432
-34.2067
-30.6245
-26.98
-22.8669
-17.7357
-11.1546
-3.07073
6.13015
15.5997
24.2034
30.8816
34.9967
36.5518
36.2034
35.0194
34.0566
33.9679
34.8119
36.1359
37.2399
37.4892
36.6143
34.7288
32.1927
29.4578
26.8802
24.6219
22.7164
21.063
19.5214
17.9609
16.3609
14.7993
13.4667
12.6431
12.5644
13.27
14.4995
15.7279
16.277
15.57
13.4141
10.1666
6.65587
3.90395
2.75764
3.58733
6.21887
10.0576
14.3963
18.6508
22.5431
26.1099
29.4596
32.6369
35.554
37.9878
39.6169
40.2156
39.6806
38.1619
36.0035
33.7109
31.8499
30.8249
30.77
31.4836
32.4802
33.1582
33.0378
31.9531
30.1519
28.1829
26.7101
26.2308
26.8812
28.3853
30.1792
31.6565
32.3753
32.2313
31.4227
30.3864
29.5891
29.351
29.7989
30.9044
32.4775
34.2365
35.917
37.3053
38.3317
39.0789
39.8206
40.9235
42.5526
44.4507
45.7035
44.8218
40.0675
30.0966
14.7137
-4.56214
-24.4632
-40.5365
-48.2464
-44.2793
-27.6618
-0.287964
33.4191
67.5439
96.1643
114.813
121.435
116.633
103.218
85.1602
66.4923
50.3812
38.653
31.7189
28.8831
28.8106
29.9558
30.9353
30.7557
28.8992
25.3463
20.5092
15.1486
10.1604
6.35794
4.2795
4.01686
5.17695
7.06873
9.02193
10.6235
11.8569
13.0285
14.5197
16.4556
18.5391
20.0727
20.2215
18.3811
14.4954
9.09279
3.15299
-2.25279
-6.35853
-8.98898
-10.5344
-11.7071
-13.1893
-15.3466
-18.1164
-21.1813
-24.2443
-27.2239
-30.2872
-33.6302
-37.1928
-40.5135
-42.811
-43.3125
-41.6293
-38.0436
-33.5104
-29.3151
-26.6131
-26.0756
-27.6373
-30.5397
-33.6788
-35.9139
-36.35
-34.4254
-29.898
-22.7477
-13.1367
-1.42567
11.7429
25.4206
38.4119
49.5069
57.7347
62.6752
64.5514
64.1691
62.6735
61.1658
60.3667
60.4418
61.0454
61.5664
61.4466
60.5025
59.0236
57.6981
57.2912
58.2547
60.4842
63.3447
65.9078
67.2707
66.9472
65.0087
62.0124
58.7557
55.9748
54.157
53.4597
53.7394
54.6483
55.8013
56.8875
57.688
58.1252
58.1941
57.9341
57.3388
56.35
54.8642
52.8686
50.5888
48.5559
47.5437
48.3776
51.5736
57.0462
63.8939
70.5098
75.0461
76.0067
72.8202
66.1376
57.6745
49.6071
43.8243
41.3497
42.0802
44.9744
48.5531
51.4577
52.8224
52.4783
50.735
48.1779
45.3935
42.8275
40.7931
39.5059
39.0518
39.3668
40.2534
41.3919
42.3777
42.8519
42.6355
41.7823
40.5339
39.2441
38.2726
37.9369
38.4483
39.8653
42.1656
45.2434
48.8389
52.4564
55.3127
56.2707
53.9256
47.0139
34.8759
17.9915
-1.62472
-20.621
-34.9593
-40.9949
-36.5329
-21.4603
2.20571
30.7238
59.5613
84.4226
102.023
110.475
109.466
100.108
84.7088
66.3027
48.1251
32.9477
22.5132
17.1552
15.8024
16.5968
17.574
17.3331
15.4181
12.2731
8.72927
5.52659
3.01797
1.11563
-0.429183
-1.77513
-2.93098
-3.7876
-4.31535
-4.53167
-4.56676
-4.59198
-4.81424
-5.43059
-6.56363
-8.24553
-10.4202
-12.8394
-15.1006
-16.7331
-17.447
-17.2557
-16.418
-15.3501
-14.5584
-14.5211
-15.6077
-18.2176
-22.7443
-29.5195
-38.5879
-49.4685
-61.0285
-71.5422
-79.1685
-82.5638
-81.4576
-76.8703
-70.8063
-65.5017
-62.5194
-62.2939
-64.0522
-66.2293
-67.1958
-65.7988
-61.5508
-54.6396
-45.7226
-35.7579
-25.8959
-17.4307
-11.574
-9.07652
-9.95259
-13.3694
-17.693
-20.8802
-21.1147
-17.3472
-9.68195
0.723548
12.0888
22.5197
30.6042
35.684
37.7955
37.4392
35.2761
31.8788
27.8099
23.6795
20.2186
18.2107
18.1725
20.0382
23.0569
25.9742
27.43
26.4719
23.0001
17.8027
12.1716
7.36682
4.06079
2.12069
0.749721
-0.997689
-3.67419
-7.1247
-10.5745
-12.964
-13.4032
-11.5407
-7.64186
-2.39946
3.29053
8.56344
12.6919
15.137
15.5091
13.6904
9.94093
4.94254
-0.23519
-4.43366
-6.73441
-6.7793
-4.88885
-1.96983
0.848154
2.62622
2.91611
1.80037
-0.266908
-2.76201
-5.30465
-7.76762
-10.1918
-12.6007
-14.8211
-16.4672
-17.0564
-16.2444
-14.0563
-10.9098
-7.50133
-4.53522
-2.41293
-1.15691
-0.485907
-0.0242118
0.55736
1.40977
2.54264
4.03154
6.04718
8.76533
12.1283
15.5699
17.8764
17.4126
12.617
2.53746
-12.6046
-31.1074
-49.8648
-64.9485
-72.4748
-69.5316
-54.9692
-29.8311
2.75808
38.2032
71.3877
97.7594
114.168
119.439
114.396
101.472
83.9578
65.2128
47.9386
33.7427
22.9584
14.9473
8.6313
3.01694
-2.38538
-7.42015
-11.3811
-13.4183
-13.0477
-10.4126
-6.39411
-2.38552
0.20759
0.492243
-1.66351
-5.6244
-10.2252
-14.1914
-16.6148
-17.1883
-16.1215
-13.9498
-11.3234
-8.84177
-6.93704
-5.95653
-6.22629
-8.00604
-11.4169
-16.3811
-22.4889
-29.0296
-35.0458
-39.6335
-42.1523
-42.4351
-40.8534
-38.2128
-35.5662
-33.9768
-34.201
-36.5416
-40.8208
-46.4011
-52.3291
-57.6374
-61.5996
-63.8582
-64.4721
-63.886
-62.6475
-61.1467
-59.4486
-57.296
-54.1885
-49.6049
-43.212
-34.9984
-25.2974
-14.7263
-4.06821
5.91304
14.5822
21.443
26.2094
28.8815
29.8217
29.7618
29.6708
30.5386
33.0277
37.1721
42.2973
47.3005
51.1572
53.3171
53.8889
53.5025
52.9508
52.6343
52.3986
51.6982
50.0111
47.2698
44.0241
41.2402
39.8061
40.0445
41.4777
42.9565
43.174
41.2621
37.2387
32.0531
27.248
24.4207
24.6659
28.2326
34.4624
42.0389
49.3908
55.1116
58.2612
58.5892
56.5433
53.12
49.5623
46.9641
46.0187
46.8391
48.9508
51.5124
53.6262
54.6632
54.4409
53.2402
51.6489
50.3199
49.6902
49.8317
50.4165
50.8506
50.4817
48.8742
45.959
42.1061
37.9922
34.4169
32.0926
31.373
32.1567
33.9508
36.0663
37.8765
39.0819
39.765
40.3497
41.3541
43.0544
45.2836
47.4529
48.831
48.9261
47.7711
45.9769
44.441
43.7659
43.6991
42.8468
39.0688
30.2951
15.5066
-4.44229
-26.5951
-46.4233
-59.0181
-60.4489
-48.8754
-25.0831
7.72816
44.6536
80.2027
109.432
128.763
136.449
132.639
119.136
98.9109
75.4712
52.1983
31.8817
16.3453
6.25711
1.27013
0.291542
1.88116
4.63215
7.44833
9.6177
10.7461
10.6869
9.39354
6.74963
2.60585
-3.06989
-10.0638
-17.8576
-25.5288
-31.8965
-35.8144
-36.5221
-33.9615
-28.9124
-22.8394
-17.5181
-14.5197
-14.7205
-18.0838
-23.7706
-30.4835
-36.9723
-42.293
-46.0836
-48.6065
-50.4596
-52.3189
-54.74
-58.0119
-62.0436
-66.4119
-70.5461
-73.9362
-76.3385
-77.9212
-79.2082
-80.8949
-83.5478
-87.3552
-91.9943
-96.7285
-100.606
-102.747
-102.615
-100.06
-95.2219
-88.4484
-80.2787
-71.3857
-62.5176
-54.4167
-47.5669
-42.0023
-37.07
-31.6607
-24.7112
-15.6812
-4.96287
6.07247
15.5708
21.9065
24.3542
23.3509
20.3168
17.0229
14.7982
14.1175
14.5593
15.2539
15.456
15.0254
14.4761
14.7169
16.4146
19.4528
22.9451
25.5122
25.8722
23.3964
18.4512
12.3422
6.73332
2.99554
1.67276
2.38097
4.04841
5.44623
5.83855
5.30977
4.74076
5.33622
8.02826
12.9926
19.4398
25.9255
30.8868
33.0997
32.1716
28.6588
23.7788
18.9351
15.3003
13.4501
13.4032
14.6872
16.558
18.3987
19.8319
20.7659
21.4132
22.1099
23.1868
24.7567
26.5014
27.637
27.1127
23.904
17.4875
8.24666
-2.43759
-12.4652
-19.597
-22.1694
-19.6776
-12.9959
-4.12938
4.39735
10.2684
12.085
9.75385
4.47802
-1.74533
-6.79621
-9.0562
-7.83373
-3.53202
2.54681
8.59785
12.7682
13.4528
9.62216
0.931627
-12.2335
-28.7113
-46.5023
-62.913
-74.7961
-79.1305
-73.6768
-57.7107
-32.5216
-1.43986
30.8259
59.0527
78.6771
86.8758
83.1588
69.4286
49.4275
27.7627
8.74306
-4.66184
-11.5505
-13.1149
-11.9331
-10.9041
-12.0852
-15.9916
-21.5621
-26.766
-29.6656
-29.3317
-26.2532
-22.0885
-18.8624
-18.0633
-20.055
-23.9857
-28.315
-31.5341
-32.8623
-32.482
-31.3052
-30.4802
-30.9609
-33.2111
-37.0677
-41.922
-47.0033
-51.5731
-54.8661
-56.2143
-55.2484
-51.9933
-46.9752
-41.2745
-36.3567
-33.7495
-34.5909
-39.1996
-46.91
-56.1398
-64.7769
-70.8705
-73.2311
-71.8402
-67.9438
-63.4188
-60.0916
-59.1204
-60.5971
-63.681
-67.0543
-69.4898
-70.1948
-68.908
-65.7579
-60.9643
-54.7335
-47.316
-39.1054
-30.6114
-22.4705
-15.2616
-9.26092
-4.42176
-0.48046
2.80169
5.45205
7.15285
7.4062
5.81201
2.31602
-2.5736
-7.9241
-12.5244
-15.1596
-14.8825
-11.1254
-3.8881
6.15343
17.5617
28.2703
35.9251
38.4821
34.932
25.6855
12.6239
-1.36251
-13.1988
-20.5471
-22.4522
-19.4728
-13.3792
-6.5123
-0.955988
2.09419
2.63784
1.79758
1.24594
2.38811
5.83048
11.1477
16.9923
21.7361
24.1737
24.0384
22.0467
19.5018
17.6331
17.0603
17.5024
17.8941
16.9878
13.9553
8.90646
2.76485
-3.16344
-7.438
-9.07339
-7.78302
-3.94652
1.38234
6.58733
9.68482
8.59279
1.84256
-10.6939
-27.4018
-44.9919
-59.462
-67.3634
-67.0057
-59.0337
-46.0842
-31.6776
-18.8056
-8.9808
-2.04792
3.27192
8.39014
13.9205
19.2571
22.9094
23.2383
19.323
11.4157
0.829673
-10.4779
-20.2499
-26.7154
-28.8155
-26.2045
-19.2825
-9.0952
2.80946
14.5107
24.1614
30.3802
32.513
30.7136
25.8465
19.1985
12.0973
5.60385
0.46942
-2.82432
-3.99964
-3.01323
-0.0510087
4.35661
9.21075
13.1644
14.8399
13.2517
8.13874
0.136054
-9.5005
-19.2365
-27.7153
-34.0323
-37.7703
-38.8051
-37.1987
-33.2305
-27.5631
-21.3193
-16.0477
-13.3526
-14.3482
-19.1946
-26.9551
-35.793
-43.5908
-48.7138
-50.5647
-49.697
-47.4804
-45.5684
-45.2098
-46.7685
-49.7092
-52.9767
-55.4725
-56.6189
-56.645
-56.461
-57.2446
-59.9125
-64.6285
-70.7013
-76.8053
-81.4667
-83.6393
-83.1354
-80.6835
-77.6027
-75.2029
-74.2584
-74.7148
-75.7193
-76.0038
-74.3665
-70.1229
-63.3114
-54.6459
-45.2388
-36.2208
-28.3986
-22.1054
-17.1206
-12.8661
-8.68557
-4.15251
0.781196
5.76566
10.1398
13.2046
14.4778
13.8853
11.8072
8.96469
6.22109
4.36828
3.84642
4.66338
6.39955
8.39209
9.98059
10.7826
10.8756
10.6471
10.5862
10.947
11.4486
11.3698
9.88842
6.52789
1.50816
-4.07671
-8.60759
-10.4926
-8.79797
-3.63525
3.79696
11.6061
17.7991
20.8072
19.9193
15.3059
7.85594
-1.10447
-10.115
-17.8002
-22.9593
-24.7195
-22.6359
-16.8221
-8.0734
2.17543
12.1257
20.0318
24.6
25.2894
22.3804
16.8615
10.123
3.63266
-1.42256
-4.3056
-4.72258
-2.87348
0.646264
5.03424
9.42868
13.0488
15.357
16.1858
15.75
14.6559
13.6288
13.3477
14.2489
16.4052
19.4496
22.6393
24.8916
24.8779
21.2733
13.0826
0.0486105
-16.9307
-35.629
-52.7601
-64.6591
-68.1849
-61.5215
-44.7531
-19.8746
9.67775
39.7958
66.532
86.7616
98.6481
101.777
97.0057
86.1497
71.5563
55.6311
40.4447
27.5017
17.5615
10.7427
6.68552
4.72535
4.03406
3.75638
3.0894
1.41716
-1.50845
-5.3932
-9.43806
-12.5259
-13.6479
-12.3761
-9.08665
-4.8711
-1.11144
1.10039
1.42694
0.302023
-1.42236
-3.05017
-4.50547
-6.42412
-9.77707
-15.2067
-22.4598
-30.2365
-36.5829
-39.6533
-38.5413
-33.789
-27.2808
-21.5515
-18.8493
-20.369
-25.8744
-33.959
-42.6885
-50.3938
-56.135
-59.8651
-62.1614
-63.7771
-65.2413
-66.6708
-67.8377
-68.4004
-68.0883
-66.7974
-64.6389
-61.77
-58.2473
-54.0418
-49.1057
-43.3972
-36.971
-30.0125
-22.7954
-15.5385
-8.39863
-1.51688
4.99177
11.0208
16.5029
21.5077
26.2722
31.1758
36.516
42.2706
47.8918
52.4052
54.7465
54.1547
50.5991
44.9153
38.5512
33.1038
29.7698
28.9506
30.1709
32.3516
34.3144
35.227
34.848
33.5794
32.2536
31.7353
32.5982
34.8893
38.1558
41.5494
44.03
44.7238
43.2724
39.9431
35.624
31.5992
29.1342
29.0128
31.2114
34.9217
38.8456
41.789
43.0397
42.6724
41.4338
40.2864
39.9271
40.4749
41.468
42.1548
41.9983
40.9631
39.5107
38.3533
38.0417
38.5922
39.4449
39.7458
38.7517
36.2342
32.6133
28.7246
25.5213
23.7639
23.6979
25.0198
27.0856
29.1209
30.4621
30.6666
29.6311
27.5903
25.0516
22.6223
20.8632
20.2049
20.7998
22.5523
25.2266
28.5586
32.3009
36.1152
39.4159
41.2042
40.1681
34.9819
24.7953
9.83198
-8.26368
-26.493
-41.0275
-48.1117
-45.0162
-30.8127
-6.70857
24.0763
56.9561
86.9375
109.601
121.998
123.142
114.067
97.4428
76.7975
55.6613
36.7859
21.7691
10.9237
3.61673
-1.18683
-4.35435
-6.26542
-6.80839
-5.62679
-2.59601
1.82331
6.43231
9.53489
9.53288
5.5359
-2.18865
-12.1794
-22.1759
-29.88
-33.7668
-33.6199
-30.5583
-26.5561
-23.6631
-23.2164
-25.3539
-29.0639
-32.7449
-34.931
-34.9452
-33.1528
-30.7525
-29.1818
-29.5314
-32.1435
-36.6263
-42.1422
-47.869
-53.3088
-58.3688
-63.1956
-67.8991
-72.394
-76.3826
-79.479
-81.4479
-82.3562
-82.5283
-82.4211
-82.4498
-82.8773
-83.7146
-84.709
-85.4176
-85.2949
-83.7598
-80.3256
-74.7594
-67.245
-58.358
-48.9307
-39.7596
-31.348
-23.6962
-16.3974
-8.92183
-1.01916
7.0246
14.4125
20.1405
23.4503
24.2239
23.0949
21.2245
19.8542
19.8566
21.4222
24.0237
26.7096
28.435
28.4429
26.4354
22.6538
17.7971
12.8034
8.61967
6.00175
5.37515
6.75304
9.77073
13.8268
18.2681
22.5292
26.1562
28.7998
30.1396
29.8949
27.9282
24.356
19.7141
14.9616
11.2928
9.78098
11.0389
14.9898
20.8382
27.2837
32.9413
36.6372
37.7197
36.103
32.2051
26.7298
20.5177
14.4241
9.2164
5.4997
3.66406
3.84071
5.87655
9.31877
13.4979
17.6828
21.2348
23.6979
24.8774
24.8126
23.6662
21.6139
18.7971
15.2901
11.1362
6.46209
1.53844
-3.23176
-7.37816
-10.4685
-12.185
-12.3569
-11.0164
-8.36635
-4.75957
-0.700733
3.20701
6.40288
8.49476
9.35936
9.18036
8.33676
7.24348
6.23293
5.49055
5.18094
5.47227
6.4773
7.97797
9.1215
8.31203
3.44155
-7.33693
-24.5317
-46.513
-69.2932
-87.1648
-94.243
-86.3151
-62.3444
-25.0839
19.4435
63.4458
99.3377
121.555
127.691
118.706
98.2422
71.4526
43.6428
19.079
0.324844
-11.9281
-18.6082
-21.6125
-23.0526
-24.5212
-26.7629
-29.6201
-32.2974
-33.8354
-33.5422
-31.3185
-27.7163
-23.725
-20.502
-19.0337
-19.8591
-22.9247
-27.6154
-32.9469
-37.8427
-41.4662
-43.475
-44.0882
-43.9608
-43.8989
-44.4979
-45.9321
-47.8835
-49.7732
-51.0918
-51.6654
-51.7367
-51.9115
-52.8194
-54.8168
-57.8419
-61.5262
-65.4445
-69.3702
-73.409
-77.8756
-82.9953
-88.6164
-94.0873
-98.4034
-100.59
-100.094
-97.0543
-92.3362
-87.2704
-83.1941
-81.0106
-80.9556
-82.5246
-84.659
-86.0807
-85.6304
-82.5349
-76.5282
-67.8269
-56.9957
-44.8097
-32.1133
-19.7356
-8.41534
1.2527
8.8736
14.3164
17.732
19.5325
20.2894
20.591
20.886
21.373
22.02
22.6371
22.9996
22.9972
22.6901
22.2668
21.9527
21.9543
22.4066
23.331
24.7134
26.4866
28.5208
30.5965
32.4342
33.7443
34.3164
34.0643
33.0745
31.5677
29.7946
27.9616
26.2512
24.8625
24.0344
24.0282
25.0633
27.1692
30.0368
33.021
35.3114
36.2146
35.4383
33.2328
30.3711
27.8037
26.3245
26.2657
27.4544
29.3394
31.281
32.8421
33.8324
34.245
34.0679
33.1643
31.3029
28.3263
24.3467
19.8945
15.7973
12.9269
11.8645
12.6942
14.9698
17.8595
20.4009
21.8455
21.8431
20.5129
18.3604
16.1033
14.4202
13.7479
14.1432
15.3037
16.6849
17.7697
18.348
18.5879
18.9705
20.0786
22.3477
25.8089
29.9517
33.7921
35.9978
35.1252
29.9229
19.6346
4.42903
-14.296
-33.8121
-50.3258
-59.6833
-58.3756
-44.613
-19.064
15.0224
52.4467
87.2245
113.926
128.885
130.851
121.019
102.485
79.3733
55.8381
35.2408
19.5797
9.29547
3.51638
0.610902
-1.13507
-2.92667
-5.16356
-7.44106
-8.96866
-9.03863
-7.44443
-4.64215
-1.55726
0.742587
1.46082
0.370766
-2.15751
-5.37562
-8.4863
-10.9607
-12.719
-14.0331
-15.3546
-17.0184
-19.0196
-21.0466
-22.6468
-23.511
-23.6407
-23.3953
-23.3243
-23.9827
-25.6904
-28.4512
-32.0068
-35.9925
-40.0615
-43.9467
-47.4359
-50.3661
-52.5752
-53.942
-54.4635
-54.2936
-53.7465
-53.1918
-52.9278
-53.06
-53.5029
-54.0705
-54.6068
-55.0502
-55.4609
-55.9569
-56.5214
-56.8671
-56.4284
-54.4472
-50.213
-43.2964
-33.7257
-22.0504
-9.27216
3.38182
14.7498
23.9709
30.6061
34.6789
36.6098
37.0931
36.897
36.7239
37.038
37.9511
39.1717
40.0848
39.9559
38.2684
35.0447
30.9457
27.1304
24.8902
25.1767
28.1933
33.2383
38.9418
43.7868
46.6074
46.9787
45.269
42.3632
39.2586
36.6961
34.9535
33.9285
33.4286
33.3816
33.891
35.1344
37.1352
39.5874
41.8816
43.3137
43.3915
42.1426
40.1688
38.4367
37.8706
38.9634
41.5329
44.7428
47.4548
48.7359
48.2852
46.5668
44.6103
43.5171
43.9541
45.7752
48.0537
49.4516
48.7636
45.4382
39.8449
33.1353
26.8558
22.4258
20.6681
21.5654
24.3346
27.7323
30.5345
31.9268
31.6953
30.3004
28.6901
27.9007
28.6813
31.1873
34.8463
38.4782
40.7039
40.4566
37.485
32.5503
27.2809
23.6393
23.0872
25.9082
30.8386
35.3235
36.2749
31.0996
18.7736
0.46017
-20.5101
-39.3816
-51.1765
-52.0148
-40.1805
-16.6263
15.2006
50.188
82.6828
107.728
122.087
124.712
116.715
100.888
80.8441
60.0965
41.3537
26.1405
14.7975
6.78562
1.18271
-2.89582
-6.01671
-8.44783
-10.3195
-11.8189
-13.2265
-14.8677
-17
-19.5523
-22.0734
-23.8823
-24.3358
-23.092
-20.233
-16.355
-12.3908
-9.36465
-8.13334
-9.22458
-12.7542
-18.4176
-25.5412
-33.1515
-40.1412
-45.4801
-48.413
-48.6708
-46.5848
-42.9934
-39.0962
-36.1687
-35.2305
-36.7757
-40.7668
-46.75
-54.0027
-61.7433
-69.3062
-76.1929
-82.0502
-86.6274
-89.8036
-91.5706
-92.0287
-91.3518
-89.8316
-87.7628
-85.4025
-82.9273
-80.4165
-77.8253
-74.9859
-71.6012
-67.306
-61.7705
-54.7788
-46.3164
-36.5922
-26.0378
-15.2058
-4.71093
4.83396
12.9048
19.0882
23.0978
24.8413
24.5459
22.7604
20.3172
18.226
17.3851
18.3054
20.8917
24.439
27.87
30.1015
30.4875
29.0618
26.5317
23.9949
22.443
22.3664
23.5843
25.3223
26.5786
26.5416
24.9207
22.0005
18.5092
15.311
13.1386
12.4602
13.4365
15.9762
19.7471
24.2673
28.8837
32.8696
35.5719
36.6366
36.1665
34.6961
32.9666
31.6309
30.9366
30.6057
29.9901
28.4456
25.6821
21.9736
18.1593
15.3161
14.3705
15.7437
19.1281
23.5806
27.7597
30.2946
30.1781
27.1156
21.6563
15.03
8.78441
4.29169
2.25399
2.47764
4.01102
5.60983
6.33532
5.99583
5.27542
5.41337
7.62912
12.4794
19.5363
27.428
34.2892
38.4441
38.9728
36.0438
30.8677
25.3346
21.3006
19.8489
20.7802
22.4798
22.2667
17.1721
5.08733
-14.1627
-38.1719
-62.1079
-79.7485
-85.1041
-74.1641
-46.3107
-4.7831
43.8907
91.4539
129.939
153.511
159.671
149.52
127.027
97.6576
66.831
38.7882
16.0367
-0.556422
-11.297
-17.0591
-18.8804
-17.8545
-15.2031
-12.2531
-10.2338
-9.95963
-11.5177
-14.2258
-16.868
-18.2191
-17.5799
-15.0615
-11.5058
-8.06502
-5.74059
-5.0735
-6.07202
-8.38358
-11.5915
-15.3739
-19.5533
-24.008
-28.5105
-32.653
-35.9615
-38.0408
-38.7019
-38.0481
-36.4822
-34.6368
-33.2129
-32.8638
-34.0566
-36.9564
-41.3399
-46.6326
-52.0116
-56.5863
-59.6525
-60.8877
-60.452
-58.9449
-57.2141
-56.114
-56.2626
-57.9119
-60.8986
-64.6689
-68.4347
-71.3391
-72.6133
-71.6162
-67.8678
-61.1524
-51.5727
-39.6673
-26.4576
-13.3582
-1.88
6.77131
12.0769
14.389
14.7599
14.5782
15.0877
17.0131
20.3841
24.6711
29.0102
32.508
34.4243
34.2514
31.7989
27.2704
21.3291
15.025
9.61624
6.24054
5.59079
7.62319
11.5318
16.0191
19.7355
21.7427
21.695
19.9017
17.0792
14.0422
11.4859
9.87975
9.43217
10.1138
11.6395
13.4256
14.7576
14.9233
13.5333
10.7857
7.52172
4.97404
4.37684
6.43766
11.023
17.1789
23.4415
28.3646
31.0016
31.1596
29.3778
26.6676
24.0662
22.3001
21.5809
21.5833
21.6617
21.1272
19.4953
16.6282
12.8124
8.67775
4.95748
2.19243
0.529867
-0.318622
-0.975339
-2.01247
-3.67626
-5.63102
-7.04498
-6.93471
-4.52531
0.409334
7.41214
15.5544
23.7199
30.8366
35.9659
38.3687
37.3642
32.3633
23.071
9.80882
-6.19553
-22.8407
-37.3353
-46.6454
-48.2324
-40.7776
-24.5692
-1.58439
24.8225
50.559
71.6498
85.1581
89.81
86.1377
76.1667
62.7453
48.7086
36.1209
25.9756
18.3139
12.5432
7.85962
3.6425
-0.407871
-4.34728
-8.15896
-11.7272
-14.941
-17.7067
-19.9489
-21.6137
-22.7125
-23.4824
-24.3231
-25.6467
-27.8179
-31.1014
-35.5134
-40.7468
-46.2093
-51.1047
-54.5086
-55.6333
-54.1503
-50.4067
-45.4474
-40.7033
-37.5202
-36.6999
-38.153
-40.9368
-43.7408
-45.5603
-46.0941
-45.8077
-45.7039
-46.7942
-49.593
-53.9274
-59.1639
-64.5899
-69.7331
-74.3883
-78.5271
-81.9483
-84.0536
-83.9489
-80.8903
-74.6666
-65.8829
-55.9475
-46.6755
-39.6572
-35.7889
-35.0031
-36.3958
-38.7166
-40.8102
-42.0432
-42.3402
-42.0088
-41.3422
-40.3812
-38.8159
-35.9659
-31.0107
-23.4798
-13.4916
-2.01182
9.30721
18.5385
24.1085
25.2667
22.3627
16.6233
9.63401
2.68847
-3.59594
-9.26731
-14.6401
-19.7768
-24.1632
-26.78
-26.49
-22.5829
-15.2402
-5.64252
4.21894
12.2853
17.041
17.957
15.5175
10.9333
5.48855
0.0485608
-5.04415
-9.78693
-14.1407
-17.6185
-19.3003
-18.1307
-13.5318
-5.91771
3.20459
11.7023
17.5989
19.8059
18.5529
15.1389
11.2346
8.03998
5.78513
3.79779
1.05971
-2.95783
-7.81077
-12.181
-14.4598
-13.5454
-9.34447
-2.86743
4.1728
10.1107
13.9164
15.375
14.964
13.5261
11.8528
10.5102
9.8086
9.93015
10.9794
12.866
15.1024
16.6896
16.1433
11.782
2.31929
-12.4509
-31.1701
-50.9305
-67.6986
-77.2292
-76.1677
-62.9921
-38.4251
-5.35248
31.7653
67.7689
97.7096
117.665
125.371
120.558
104.955
81.9363
55.7943
30.8809
10.6331
-3.09685
-10.2695
-12.4031
-11.8782
-11.0418
-11.5118
-13.847
-17.553
-21.4936
-24.4718
-25.737
-25.2153
-23.4334
-21.2721
-19.5593
-18.7669
-18.9487
-19.7987
-20.83
-21.6286
-22.0234
-22.1592
-22.4019
-23.157
-24.7151
-27.1194
-30.1416
-33.3457
-36.2606
-38.5134
-40.0251
-41.0683
-42.1613
-43.9008
-46.6458
-50.2795
-54.1474
-57.2776
-58.7306
-57.9792
-55.1585
-51.0645
-46.8151
-43.4957
-41.7676
-41.7552
-43.1797
-45.6234
-48.725
-52.279
-56.1903
-60.2438
-63.9204
-66.3258
-66.4031
-63.2453
-56.4756
-46.4981
-34.5298
-22.2542
-11.3279
-2.86691
2.85061
6.43748
9.1214
12.2432
16.645
22.3724
28.5989
33.9227
36.9273
36.7597
33.4933
28.2214
22.6739
18.6842
17.5891
19.7325
24.4137
30.1493
35.1198
37.7483
37.24
33.794
28.4959
23.0017
18.98
17.6037
19.1661
23.0505
27.9595
32.3955
35.1405
35.6198
34.0787
31.4768
29.1156
28.1619
29.2819
32.3508
36.5869
40.8642
44.1317
45.7254
45.4834
43.625
40.5228
36.498
31.7758
26.6507
21.665
17.6358
15.5461
16.2191
19.9178
26.1013
33.4905
40.3261
44.8945
46.046
43.544
38.1712
31.5036
25.3863
21.3906
20.4002
22.3577
26.404
31.2736
35.7371
39.0003
40.9672
42.1017
42.9309
43.496
42.9665
39.6725
31.6159
17.3792
-2.8598
-26.7108
-49.7623
-66.5617
-72.0563
-63.1011
-39.4678
-4.0548
37.7911
79.5162
114.814
138.924
149.35
146.069
131.177
108.16
81.0536
53.6533
28.9168
8.7246
-6.13473
-15.7709
-20.8889
-22.4811
-21.5684
-19.095
-15.9457
-12.9126
-10.7291
-10.0197
-11.2308
-14.4822
-19.4953
-25.6652
-32.1547
-38.0374
-42.4849
-44.9398
-45.2658
-43.7954
-41.2392
-38.5354
-36.6232
-36.2295
-37.7345
-41.1501
-46.2156
-52.5232
-59.5909
-66.889
-73.8159
-79.7744
-84.2231
-86.8209
-87.5823
-86.8626
-85.2798
-83.5657
-82.3267
-81.923
-82.4137
-83.6352
-85.3111
-87.2465
-89.3779
-91.729
-94.3364
-97.1421
-99.9072
-102.243
-103.729
-104.031
-103.07
-101.04
-98.2984
-95.1968
-91.883
-88.1511
-83.4928
-77.2808
-69.0403
-58.7369
-46.9406
-34.731
-23.4171
-14.2072
-7.85314
-4.50042
-3.74893
-4.88817
-7.17135
-9.98117
-12.8979
-15.6215
-17.9049
-19.498
-20.1978
-19.9856
-19.1033
-18.0229
-17.2881
-17.2953
-18.1043
-19.3604
-20.418
-20.5748
-19.3808
-16.8237
-13.3796
-9.87643
-7.20503
-6.0154
-6.48643
-8.27326
-10.6043
-12.5264
-13.1789
-12.0405
-9.11187
-4.92731
-0.467326
3.13213
4.94655
4.5875
2.37628
-0.723105
-3.43492
-4.61438
-3.66818
-0.769123
3.1965
6.9321
9.1582
8.98911
6.18836
1.23305
-4.803
-10.5188
-14.5181
-15.757
-13.803
-8.9701
-2.29113
4.74607
10.5894
14.0483
14.6538
12.7932
9.55737
6.34629
4.42488
4.46179
6.39087
9.55319
12.9938
15.7704
17.1684
16.679
13.8846
8.39985
-0.0502038
-11.3721
-24.7374
-38.3632
-49.6317
-55.5985
-53.7545
-42.8401
-23.368
2.32517
30.528
57.0454
78.1308
91.2279
95.4057
91.2727
80.5988
65.7629
49.2055
33.0292
18.7866
7.40531
-0.815321
-6.0413
-8.745
-9.59215
-9.30538
-8.5684
-7.93147
-7.78643
-8.27219
-9.27928
-10.4997
-11.5031
-11.8921
-11.4777
-10.3656
-8.91525
-7.62803
-6.96351
-7.1894
-8.32343
-10.1564
-12.3705
-14.6794
-16.8838
-18.9191
-20.7676
-22.4003
-23.7365
-24.6467
-25.0206
-24.8934
-24.5265
-24.4061
-25.169
-27.4202
-31.4691
-37.1608
-43.7927
-50.2451
-55.282
-57.9111
-57.7271
-55.061
-50.8753
-46.4163
-42.8167
-40.7066
-40.1099
-40.5298
-41.2328
-41.5895
-41.321
-40.5155
-39.4887
-38.5521
-37.7863
-36.9757
-35.6042
-32.9606
-28.3688
-21.3903
-12.0215
-0.80573
11.1629
22.3849
31.2756
36.6347
37.9918
35.793
31.3277
26.3268
22.4452
20.7519
21.4394
23.8797
26.9657
29.5072
30.6562
30.1056
28.1251
25.352
22.5511
20.409
19.4231
19.7982
21.3676
23.6119
25.6978
26.7282
26.0487
23.5405
19.7759
15.9056
13.2763
12.95
15.2865
19.8135
25.4996
31.1622
35.8992
39.3135
41.4891
42.728
43.1927
42.825
41.4702
39.1085
36.122
33.3146
31.6729
31.9719
34.3749
38.3113
42.7755
46.7527
49.5935
51.1633
51.7989
51.9352
51.7964
51.2744
50.1274
48.2665
46.0158
44.1369
43.5661
45.0015
48.5499
53.656
59.2938
64.3265
67.8559
69.4854
69.3411
67.8774
65.6972
63.2893
60.8482
58.178
54.7335
49.7754
42.7428
33.6678
23.5286
14.4211
9.23704
10.8734
21.2713
40.5866
66.7425
95.7114
122.447
142.228
151.845
150.303
138.861
120.477
98.8726
77.6164
59.4323
45.9199
37.5098
33.615
32.9412
33.8773
34.8505
34.687
32.7989
29.3117
24.875
20.4594
16.9636
14.8904
14.1725
14.1914
14.0298
12.8507
10.2147
6.30207
1.84198
-2.12941
-4.65029
-5.1825
-3.79689
-1.16642
1.65786
3.60793
3.95906
2.52369
-0.362562
-4.05149
-7.85605
-11.4319
-14.9527
-18.999
-24.1809
-30.7422
-38.2331
-45.5669
-51.3178
-54.3023
-54.0437
-51.0464
-46.6642
-42.6499
-40.4725
-40.8411
-43.5379
-47.5918
-51.7887
-55.2428
-57.6431
-59.1588
-60.1347
-60.6408
-60.2471
-58.145
-53.5612
-46.1918
-36.4742
-25.5729
-14.9023
-5.63275
1.63311
6.95467
10.8603
13.9882
16.775
19.3373
21.4712
22.8644
23.3276
22.9142
21.8433
20.3584
18.5952
16.5443
14.0312
10.8989
7.23114
3.44456
0.261466
-1.45927
-1.01069
1.82925
6.69745
12.6658
18.5075
22.9903
25.2354
24.9587
22.4735
18.6105
14.3508
10.5508
7.65955
5.63597
4.02314
2.27249
0.0684735
-2.4348
-4.5737
-5.34074
-3.82111
0.314645
6.50661
13.4085
19.2757
22.6159
22.8162
20.3545
16.5218
12.8414
10.3864
9.32406
9.0516
8.68335
7.62934
5.94552
4.24528
3.2986
3.59089
4.9751
6.72157
7.90583
7.86545
6.52029
4.36561
2.24058
0.947114
0.912551
2.03248
3.76421
5.4303
6.49118
6.65611
5.90282
4.41554
2.51998
0.661275
-0.674572
-1.00344
0.0249224
2.49064
6.06289
10.0057
13.4394
15.5575
15.8498
14.0795
10.1296
3.82112
-5.18128
-17.1157
-31.5623
-46.852
-59.9387
-66.8075
-63.6195
-48.0605
-20.4956
15.6642
54.6259
89.6937
115.066
127.223
125.468
111.671
89.3926
62.8835
36.2321
12.7661
-5.16477
-16.3853
-20.9598
-20.1322
-15.9887
-10.8727
-6.78067
-4.83303
-5.16349
-7.14199
-9.87539
-12.7157
-15.4018
-17.955
-20.4129
-22.6213
-24.2274
-24.9206
-24.6798
-23.8765
-23.1
-22.8037
-23.0279
-23.3258
-23.0427
-21.7889
-19.7594
-17.7562
-16.8763
-17.9968
-21.3562
-26.3638
-31.878
-36.7492
-40.2585
-42.3966
-43.7143
-44.9763
-46.7368
-49.1043
-51.7299
-54.0847
-55.7664
-56.677
-57.0688
-57.3896
-58.0448
-59.1822
-60.673
-62.1835
-63.2765
-63.5648
-62.8295
-60.9882
-58.0592
-54.1167
-49.2394
-43.4544
-36.7527
-29.137
-20.6699
-11.4966
-1.89493
7.69459
16.693
24.516
30.6668
34.8833
37.1852
37.8556
37.356
36.1775
34.7077
33.2129
31.8965
30.9833
30.7214
31.3751
33.1478
35.9941
39.5419
43.1652
46.1112
47.7026
47.5462
45.5899
42.1183
37.6807
32.9669
28.678
25.3889
23.4537
22.9511
23.6276
24.9908
26.483
27.6797
28.4633
29.1033
30.1225
32.0306
35.0556
38.8979
42.7322
45.4361
45.9734
43.7835
39.0435
32.6718
26.1009
20.8477
18.0342
18.0847
20.6118
24.539
28.3916
30.817
31.0051
28.9669
25.4654
21.7261
18.9241
17.6721
17.8165
18.5402
18.8259
18.0033
16.1008
13.8566
12.3937
12.647
14.8107
18.2144
21.5298
23.2938
22.4746
18.8722
13.1276
6.45596
0.18011
-4.70229
-7.73946
-9.06139
-9.19306
-8.80202
-8.45622
-8.48938
-8.88812
-9.41982
-9.73723
-9.58055
-8.86581
-7.73597
-6.5043
-5.5047
-4.9926
-5.036
-5.49022
-6.09778
-6.6637
-7.25469
-8.37588
-11.0894
-16.7435
-26.5424
-40.907
-58.8734
-77.8133
-93.7326
-102.13
-99.2668
-83.4011
-55.5093
-19.3094
19.5051
54.6509
80.7216
94.305
94.5077
82.7202
61.9918
36.134
8.93073
-16.4335
-37.6473
-53.3593
-63.1606
-67.4519
-67.2759
-64.0693
-59.3962
-54.65
-50.8334
-48.481
-47.6577
-48.1435
-49.6524
-51.9905
-55.1357
-59.1232
-63.8684
-69.0057
-73.8414
-77.5338
-79.4102
-79.3013
-77.6239
-75.2884
-73.3747
-72.756
-73.8769
-76.6599
-80.6536
-85.3003
-90.094
-94.6581
-98.7739
-102.316
-105.211
-107.462
-109.12
-110.286
-111.103
-111.721
-112.274
-112.846
-113.5
-114.301
-115.325
-116.653
-118.363
-120.509
-123.074
-125.936
-128.824
-131.296
-132.825
-132.898
-131.176
-127.644
-122.647
-116.793
-110.712
-104.818
-99.1573
-93.4416
-87.2478
-80.283
-72.549
-64.385
-56.385
-49.196
-43.3497
-39.179
-36.7684
-35.9363
-36.2084
-36.8927
-37.1801
-36.328
-33.8979
-29.9568
-25.1004
-20.3005
-16.6213
-14.8508
-15.2536
-17.5009
-20.8116
-24.217
-26.8927
-28.38
-28.6569
-28.0495
-27.0641
-26.1681
-25.6598
-25.578
-25.6826
-25.5461
-24.7327
-22.9858
-20.3835
-17.3618
-14.6277
-12.9327
-12.7539
-14.1034
-16.4915
-19.1014
-21.0286
-21.6202
-20.6736
-18.4609
-15.5729
-12.6649
-10.1712
-8.21661
-6.67115
-5.38531
-4.44617
-4.31116
-5.65542
-9.01542
-14.3718
-20.8833
-27
-30.9623
-31.4669
-28.2132
-22.0645
-14.7479
-8.15006
-3.66847
-1.80222
-2.21961
-4.19811
-7.11204
-10.7216
-15.0706
-20.1358
-25.435
-29.9803
-32.5989
-32.4628
-29.5103
-24.5769
-19.0549
-14.3397
-11.3308
-10.2632
-10.8884
-12.7788
-15.5605
-18.9603
-22.6389
-26.0625
-28.5312
-29.3591
-28.1498
-25.0371
-20.6699
-16.0299
-12.149
-9.90211
-9.82049
-11.9771
-15.9286
-20.6785
-24.7633
-26.4727
-24.4161
-18.1526
-8.66811
1.55046
9.04113
10.428
3.59972
-11.2679
-31.4699
-52.3659
-68.5915
-75.5528
-70.6563
-53.9167
-27.8265
3.41013
34.9059
62.1341
81.7742
92.1159
92.9883
85.5064
71.6551
53.8006
34.3749
15.6968
-0.234628
-11.9136
-18.5537
-20.2123
-17.8
-12.8934
-7.31325
-2.58611
0.430725
1.6831
1.73918
1.4166
1.4135
2.00931
2.93676
3.65176
3.57144
2.30907
-0.145289
-3.42838
-6.98435
-10.2839
-12.9748
-14.9209
-16.1102
-16.6247
-16.5835
-16.1062
-15.4052
-14.8143
-14.7282
-15.4762
-17.2438
-20.0203
-23.5343
-27.3502
-30.9484
-33.7359
-35.2695
-35.3372
-34.0904
-32.1427
-30.4551
-30.0353
-31.5226
-34.9042
-39.4882
-44.1506
-47.8426
-50.0201
-50.8711
-51.152
-51.7079
-52.9922
-54.7898
-56.2139
-56.1476
-53.7513
-48.7013
-41.2752
-32.1907
-22.2507
-12.0638
-2.09029
7.22667
15.359
21.6272
25.3664
26.203
24.0814
19.3476
12.7117
5.05896
-2.7407
-9.79905
-15.2382
-18.3233
-18.7114
-16.6454
-12.9164
-8.65305
-4.97093
-2.5634
-1.49936
-1.3133
-1.29827
-0.77422
0.527775
2.38956
4.23588
5.43772
5.58266
4.52674
2.38391
-0.688198
-4.74143
-10.1935
-17.6862
-27.5624
-39.3911
-51.6487
-61.8409
-66.9068
-64.1391
-52.4266
-32.8977
-9.01368
14.1531
31.2768
38.4243
34.369
21.0908
2.85864
-15.1909
-28.7368
-35.5881
-36.0596
-32.2696
-27.11
-23.0436
-21.3261
-21.8605
-23.5902
-25.2896
-26.1773
-26.1145
-25.347
-24.062
-22.0825
-18.9153
-14.3769
-9.345
-6.17355
-7.96184
-17.2135
-34.4247
-57.028
-79.6375
-95.6362
-99.5432
-89.1176
-66.4205
-37.192
-8.96669
11.5874
20.8924
19.2632
10.0397
-2.22487
-13.4849
-21.2826
-24.9649
-25.1704
-23.1732
-20.8245
-20.9962
-27.5295
-44.2147
-72.8669
-111.39
-152.73
-185.994
-199.564
-185.17
-141.268
-74.218
3.37852
76.5625
132.437
163.458
168.645
152.388
121.89
84.4941
45.9413
9.87755
-21.6834
-47.7138
-67.8032
-81.9115
-90.0043
-92.0784
-88.2774
-79.0412
-65.4829
-49.8515
-35.526
-26.1684
-24.3587
-30.4112
-42.0796
-55.3287
-66.057
-71.9446
-73.2317
-72.2202
-71.6772
-73.0692
-75.6879
-77.0557
-74.5144
-66.8451
-55.322
-43.3689
-35.0277
-33.0834
-37.8425
-47.1288
-57.4212
-65.5873
-70.2177
-71.8852
-72.3703
-73.3747
-75.558
-78.3501
-80.656
-81.7979
-82.195
-83.2567
-86.4895
-92.2892
-99.2886
-104.618
-105.127
-98.8275
-85.9474
-69.0756
-52.2421
-39.4196
-33.1198
-33.7432
-39.8071
-48.868
-58.3947
-66.3039
-71.078
-71.5943
-67.125
-57.4819
-43.3974
-26.7094
-10.0017
4.19665
14.1996
19.6203
21.2155
20.3116
18.1682
15.622
13.1023
11.0088
10.0095
10.8308
13.846
18.6256
23.8165
27.5995
28.5229
26.1968
21.4577
15.92
11.1835
8.08895
6.52849
5.85068
5.54484
5.71645
6.98568
9.90384
14.3609
19.3634
23.3036
24.8433
23.6739
20.7389
17.7059
16.1035
16.5614
18.5503
20.7232
21.7258
20.8561
18.3915
15.3329
12.8499
11.7993
12.549
15.0071
18.8179
23.5191
28.5954
33.4461
37.3886
39.7698
40.158
38.4469
34.9158
30.2123
25.1615
20.5986
17.3037
15.8167
16.248
18.2463
20.965
23.2413
23.9673
22.6536
19.712
16.3675
14.2263
14.667
18.162
24.0649
30.8686
36.8064
40.5675
41.7955
41.0277
39.3555
37.9204
37.4156
37.9283
39.0894
40.3969
41.3408
41.48
40.2784
37.0173
30.7706
20.7326
6.78526
-9.93477
-26.7557
-39.7399
-44.5661
-37.7649
-17.9181
13.5975
52.6295
93.107
128.508
153.449
164.829
162.341
148.175
126.295
101.292
77.3219
57.3489
42.8176
33.7089
28.8184
26.3833
24.7161
22.7169
20.0186
17.0113
14.4943
13.2195
13.5624
15.368
17.9035
20.2047
21.4325
21.199
19.7008
17.6858
16.0197
15.2522
15.291
15.3163
14.1578
10.8667
5.22536
-1.9916
-9.2698
-14.8722
-17.6075
-17.2739
-14.7
-11.3619
-8.70944
-7.72533
-8.70327
-11.4591
-15.6747
-21.2245
-28.1848
-36.5939
-46.0706
-55.5761
-63.5441
-68.4282
-69.251
-66.0829
-60.1576
-53.4758
-48.1688
-45.8789
-47.2299
-51.6615
-57.7264
-63.568
-67.5538
-68.7846
-67.3904
-64.4206
-61.3522
-59.472
-59.1932
-59.7523
-59.4277
-56.1721
-48.5111
-36.2748
-20.8231
-4.73714
9.00526
17.9631
20.9428
18.2281
11.2636
2.05434
-7.44283
-15.7495
-22.0095
-25.8652
-27.2844
-26.4785
-23.9001
-20.2339
-16.3238
-13.0362
-11.0298
-10.5765
-11.5145
-13.4337
-15.9205
-18.6782
-21.6022
-24.6399
-27.7099
-30.6787
-33.4518
-36.0607
-38.7555
-41.8446
-45.4167
-49.0512
-51.8238
-52.5445
-50.2086
-44.4906
-36.0158
-26.2989
-17.3334
-11.0645
-8.8668
-11.2142
-17.5646
-26.5383
-36.2631
-44.7882
-50.5516
-52.7095
-51.2512
-46.8841
-40.8058
-34.3068
-28.4497
-23.9418
-21.1811
-20.3219
-21.3316
-23.9726
-27.6868
-31.5976
-34.6472
-35.9092
-34.9914
-32.3473
-29.131
-26.7304
-26.1823
-27.6773
-30.4874
-33.2773
-34.7909
-34.3881
-32.2544
-29.2132
-26.3005
-24.3297
-23.7044
-24.4577
-26.3649
-29.0232
-31.8708
-34.1259
-34.7553
-32.7303
-27.518
-19.5379
-10.4108
-2.85024
0.0372218
-4.21142
-16.3816
-34.9464
-56.0742
-74.3997
-84.4515
-82.1569
-66.0507
-37.7739
-1.71495
36.086
69.4122
93.2703
104.873
103.955
92.4551
73.7194
51.5185
29.1989
9.18566
-7.16179
-19.4269
-27.8275
-32.8856
-35.1996
-35.3759
-34.0265
-31.7903
-29.3157
-27.2858
-26.2617
-26.5442
-28.1109
-30.5875
-33.3013
-35.382
-36.0451
-34.8334
-31.801
-27.5937
-23.3905
-20.5839
-20.3043
-23.0336
-28.3778
-35.1571
-41.7771
-46.7636
-49.1892
-48.8912
-46.3497
-42.3719
-37.8045
-33.3328
-29.4759
-26.6875
-25.4742
-26.3783
-29.8307
-35.8838
-44.0654
-53.3606
-62.4137
-69.9054
-74.8572
-76.8546
-76.0568
-73.0699
-68.6818
-63.6898
-58.7903
-54.5642
-51.4078
-49.4806
-48.663
-48.5625
-48.5422
-47.8613
-45.8487
-42.0284
-36.2227
-28.5085
-19.0996
-8.33578
3.31572
15.2424
26.7244
36.9877
45.3741
51.5284
55.5034
57.7145
58.687
58.7807
58.0171
56.1412
52.9324
48.5662
43.8789
40.2972
39.2886
41.7335
47.4362
55.0898
62.7079
68.4103
71.1492
71.1016
69.4458
67.7356
67.2531
68.4594
70.9662
73.8827
76.222
77.2898
76.8308
75.0199
72.2635
69.0735
66.0057
63.7143
62.8772
64.0488
67.4422
72.7661
79.2674
86.0069
92.1155
97.0082
100.41
102.188
102.103
99.7413
94.7959
87.4903
78.9445
71.1711
66.5715
67.0915
73.4156
84.5484
97.9516
110.386
118.932
121.851
119.006
111.679
101.992
92.1039
83.7233
77.8008
74.5425
73.5141
73.91
74.7382
75.0234
74.1023
71.8891
68.8715
66.0531
64.6364
65.5405
68.9337
74.1129
79.7203
84.2163
86.4337
85.966
83.3513
79.8394
76.9302
75.6553
76.0899
77.1129
76.6353
72.2313
62.0336
45.6244
24.6978
3.04276
-14.0942
-21.3676
-14.8836
6.52026
40.7053
82.5027
124.924
160.92
185.099
194.814
190.447
174.828
152.072
126.369
101.099
78.4391
59.5544
44.8664
34.3324
27.5491
23.7409
21.8377
20.7314
19.6734
18.5346
17.7471
17.8703
19.0069
20.4936
21.0152
19.2012
14.4228
7.34491
-0.208873
-5.96846
-8.26637
-6.80154
-2.72576
1.92589
5.20813
6.0935
4.72559
2.09462
-0.666993
-2.94626
-4.7755
-6.60707
-8.79976
-11.3294
-13.8149
-15.9248
-17.7049
-19.6779
-22.536
-26.7527
-32.2127
-38.2523
-43.9905
-48.7595
-52.3761
-55.1565
-57.4832
-59.3651
-60.2693
-59.3779
-56.1011
-50.613
-44.0794
-38.4332
-35.6022
-36.5778
-40.7716
-46.0566
-49.4869
-48.4324
-41.6641
-29.8774
-15.506
-1.73103
8.76436
14.7825
16.8626
16.8841
17.168
19.4692
24.2777
30.8217
37.5203
42.6759
45.1274
44.5505
41.4042
36.7282
31.7936
27.7293
25.3374
24.9719
26.4518
29.0802
31.8282
33.7835
34.4358
33.9133
32.909
32.3182
32.7586
34.1898
35.8347
36.5417
35.4283
32.3731
28.2461
24.5908
23.0379
24.6534
29.4247
36.2089
43.1702
48.3809
50.4726
48.9841
44.4353
38.0869
31.4783
25.9716
22.4752
21.383
22.6166
25.7165
29.9499
34.3686
37.9397
39.6442
38.7264
34.9443
28.725
21.1039
13.4641
7.10667
2.92755
1.28694
1.95793
4.33828
7.72569
11.4673
15.0384
17.8945
19.4159
18.9087
15.761
9.72717
1.2179
-8.50198
-17.5453
-23.9086
-26.034
-23.3345
-16.4846
-7.40193
1.14887
6.13322
5.00048
-3.64914
-19.6167
-40.924
-64.1234
-85.0074
-99.554
-104.834
-99.6418
-84.6306
-62.0275
-35.1204
-7.60402
17.0303
35.8611
46.8003
48.7131
41.5955
26.7203
6.54294
-15.6684
-36.4647
-53.0918
-64.3298
-70.8027
-74.5118
-77.918
-82.7684
-89.3207
-96.3005
-101.6
-103.405
-101.17
-95.9374
-89.8334
-85.1304
-83.2367
-84.0743
-86.2681
-87.8702
-87.3258
-84.263
-79.6943
-75.5804
-73.9818
-76.2072
-82.2569
-90.8176
-99.7188
-106.653
-109.929
-108.985
-104.439
-97.837
-91.1526
-86.1664
-83.8956
-84.3974
-86.9121
-90.2337
-93.2681
-95.4701
-97.0147
-98.6165
-101.075
-104.843
-109.735
-114.926
-119.23
-121.547
-121.195
-118.088
-112.721
-105.93
-98.5795
-91.3445
-84.612
-78.4956
-72.9215
-67.8174
-63.1767
-59.1025
-55.7839
-53.3882
-51.9725
-51.3466
-50.9562
-49.8431
-46.8411
-40.9971
-31.9487
-20.2767
-7.52946
4.15096
12.673
16.6807
16.0009
11.6069
5.20102
-1.406
-6.8454
-10.416
-11.9838
-11.7574
-9.9919
-6.86162
-2.5429
2.59752
7.86622
12.3963
15.3761
16.3294
15.2988
12.8529
9.78918
6.76803
4.12277
1.85735
-0.12421
-1.73758
-2.56734
-1.93335
0.741123
5.65073
12.4238
20.1175
27.4575
33.2767
36.8312
37.9387
36.896
34.2981
30.813
27.0084
23.2789
19.9277
17.2812
15.6923
15.4752
16.7359
19.3608
22.9996
27.1238
31.1571
34.6462
37.2152
38.5274
38.3078
36.4141
32.985
28.6624
24.5456
21.9389
21.8932
24.8638
30.4615
37.4939
44.4074
49.8516
53.0814
53.9274
52.4917
48.752
42.3167
32.5718
19.2536
3.25791
-12.9863
-25.6686
-30.4681
-23.8757
-4.42533
26.597
65.2554
105.792
141.998
168.57
182.101
181.579
168.343
145.603
117.742
89.4702
64.9968
47.3226
37.8279
36.1041
40.1624
47.0438
53.6264
57.4118
57.1074
52.8933
46.3216
39.7619
35.6125
35.464
39.5957
46.7918
54.7775
61.0099
63.5347
61.6314
55.9896
48.348
40.7453
34.8151
31.3379
30.1423
30.4815
31.4582
32.3774
32.9475
33.1759
33.1103
32.6602
31.5784
29.5331
26.297
21.9349
16.9173
11.9843
7.95431
5.51897
4.99367
6.19817
8.51716
11.0077
12.6815
12.7787
10.9574
7.40014
2.67739
-2.41169
-7.0325
-10.5215
-12.4725
-12.6788
-11.0455
-7.56267
-2.24051
4.84915
13.4673
23.1482
33.1745
42.6619
50.8176
57.095
61.2931
63.6089
64.5269
64.5882
64.185
63.472
62.4444
61.0654
59.4573
58.0531
57.4281
58.0675
60.0674
62.9699
65.9006
67.8136
67.9256
66.1033
62.8243
58.9572
55.4085
52.8113
51.3464
50.7924
50.768
50.9537
51.1855
51.3771
51.4379
51.1698
50.1873
48.0136
44.4296
39.6818
34.6147
30.51
28.708
30.0763
34.5676
41.1068
47.9243
53.1167
55.307
54.0889
50.1674
45.0229
40.4173
37.7549
37.6503
39.6695
42.531
44.482
43.8601
39.6517
31.8906
21.8121
11.6272
3.93081
0.869295
3.40871
10.9598
21.5231
32.3244
40.8024
45.4296
46.1477
44.1128
41.033
38.4561
37.244
37.4323
38.4898
39.7429
40.7096
41.016
40.2052
37.5669
32.1782
23.1973
10.34
-5.59534
-22.5575
-37.5531
-47.2355
-48.6634
-39.9552
-20.7308
7.79869
42.9528
80.8575
116.884
146.26
164.867
170.097
161.557
141.314
113.444
83.0697
54.9919
32.5629
17.0116
7.54165
2.18932
-1.11784
-3.63108
-5.53797
-6.19914
-4.7835
-1.03791
4.38076
9.97855
14.0109
15.0937
12.8386
8.05779
2.42055
-2.17207
-4.28511
-3.50959
-0.652479
2.6465
4.60958
4.01905
0.733283
-4.29838
-9.52612
-13.5208
-15.6032
-16.0051
-15.6432
-15.53
-16.2892
-17.8853
-19.8195
-21.5663
-22.8977
-24.0379
-25.4876
-27.672
-30.6559
-34.1167
-37.5649
-40.6434
-43.3287
-45.7661
-48.0812
-50.1613
-51.6383
-52.0422
-51.1536
-49.1708
-46.5704
-43.861
-41.2404
-38.4572
-34.9576
-30.2559
-24.3143
-17.5903
-10.8691
-4.82661
0.357664
5.09462
10.1658
16.2749
23.6247
31.718
39.4211
45.3855
48.5478
48.5421
45.8232
41.4994
36.8936
33.1177
30.7923
29.9339
30.143
30.8186
31.4134
31.5432
30.9974
29.7069
27.6495
24.8544
21.4804
17.8151
14.2555
11.1464
8.70283
6.91862
5.60796
4.57874
3.82974
3.61496
4.34339
6.30332
9.38155
12.905
15.8425
17.1659
16.3186
13.464
9.44061
5.35294
2.0975
-0.0188077
-1.36292
-2.6507
-4.49485
-7.02698
-9.77867
-11.9212
-12.6813
-11.811
-9.72497
-7.34152
-5.69897
-5.54235
-7.06893
-10.0365
-13.9807
-18.4697
-23.2399
-28.0646
-32.5847
-36.191
-38.1611
-37.9324
-35.4335
-31.2088
-26.2823
-21.7969
-18.6731
-17.3355
-17.7117
-19.39
-21.8385
-24.517
-26.8839
-28.4894
-29.1738
-29.2449
-29.6751
-32.0285
-37.9495
-48.4246
-63.0909
-79.8643
-95.2032
-104.904
-105.297
-94.2628
-71.8438
-40.3537
-3.90674
32.3612
63.2625
84.4717
93.3107
89.2322
73.8903
50.7737
24.408
-0.736787
-21.1502
-34.9134
-41.8727
-43.275
-41.1012
-37.4083
-33.875
-31.5868
-31.0146
-32.1631
-34.7332
-38.1529
-41.7548
-44.901
-47.1575
-48.4862
-49.2807
-50.2187
-51.9136
-54.5671
-57.7454
-60.4101
-61.3598
-59.7135
-55.3977
-49.3488
-43.3107
-39.2703
-38.7504
-42.2525
-49.0842
-57.5463
-65.527
-71.2121
-73.5576
-72.5563
-69.0968
-64.6051
-60.5625
-58.1957
-58.2878
-61.1338
-66.51
-73.7321
-81.7126
-89.0992
-94.5229
-96.9615
-96.0877
-92.4113
-87.1721
-81.8479
-77.5784
-74.7759
-73.0056
-71.3219
-68.7918
-64.9781
-60.1127
-54.8311
-49.6697
-44.6361
-39.0393
-31.805
-22.0488
-9.65712
4.3137
17.8928
28.7389
34.9031
35.4996
31.0426
23.3043
14.7857
8.01396
4.83903
5.98719
11.0266
18.564
26.7123
33.7072
38.3682
40.2649
39.6817
37.3331
33.9956
30.3087
26.762
23.7984
21.898
21.5819
23.2603
26.967
32.2477
38.1804
43.704
47.9132
50.3942
51.3094
51.2565
50.942
50.9254
51.4448
52.3873
53.4478
54.2936
54.7224
54.7058
54.3323
53.6791
52.8148
51.8752
51.1189
51.0346
52.3119
55.5784
60.9955
67.9961
75.2721
81.04
83.5748
81.8699
76.1418
67.908
59.5057
53.2876
50.8044
52.262
56.5775
61.8769
66.3057
68.7045
68.9228
67.6746
66.0233
64.8918
64.7425
65.556
66.9719
68.5066
69.8033
70.7254
71.3252
71.7645
72.35
73.2828
74.4569
75.2266
74.39
70.4884
62.2907
49.3655
32.7266
14.9685
-0.26582
-9.12344
-8.48777
3.09077
24.9645
54.4943
87.5749
119.387
145.274
161.569
166.32
159.674
143.941
123.038
101.477
83.1618
70.3623
63.2539
60.1174
58.2933
55.3762
50.1613
42.8638
34.7613
27.3789
21.639
17.5048
14.1821
10.7398
6.84353
3.02175
0.370717
0.047099
2.6386
7.67224
13.7613
19.1061
22.1174
22.007
18.9436
13.8391
7.89127
2.0415
-3.26693
-8.06408
-12.4849
-16.4935
-19.7671
-21.9416
-22.9545
-23.3505
-24.2334
-26.8269
-31.7591
-38.5231
-45.3717
-49.946
-50.2771
-45.8114
-37.8328
-29.1366
-22.9808
-21.8015
-26.2432
-34.9959
-45.4533
-54.8953
-61.5657
-65.1175
-66.2805
-66.0313
-64.7946
-62.126
-57.0133
-48.6249
-37.11
-23.866
-11.2548
-1.64216
3.55972
4.43746
2.53413
0.155723
-0.603488
1.34854
5.77289
11.462
16.9451
21.1963
23.981
25.7604
27.2641
28.9699
30.7675
32.0383
32.0229
30.2042
26.6099
21.7848
16.6189
12.0704
8.99379
7.9669
9.21704
12.6456
17.7409
23.5478
28.8423
32.3656
33.2393
31.2694
26.9842
21.5625
16.4724
13.0125
11.9504
13.4432
17.0795
22.0333
27.2814
31.7692
34.6109
35.3064
33.9145
31.0104
27.6239
25.0011
24.0953
25.2654
28.0975
31.5393
34.2912
35.2632
33.9573
30.7267
26.6714
23.2022
21.5761
22.4158
25.3561
29.1813
32.2697
33.2377
31.5495
27.8007
23.4467
20.2019
19.315
20.988
24.2719
27.5295
29.2284
28.6583
26.2127
23.2761
21.6078
22.6099
26.7518
33.3631
40.9176
47.5465
51.6554
52.46
50.1523
45.6647
40.2241
34.7288
29.2016
22.7965
14.1422
2.12313
-13.163
-29.8426
-44.29
-52.0477
-49.1471
-33.4699
-5.59316
31.0925
71.1133
108.246
136.88
153.162
155.562
144.939
124.132
97.2521
68.816
42.9232
22.5295
9.01215
2.09898
0.273733
1.43893
3.53987
5.07723
5.32566
4.25074
2.17983
-0.416932
-3.09729
-5.50457
-7.32559
-8.3864
-8.67002
-8.47073
-8.36038
-9.04753
-11.1308
-14.838
-19.8769
-25.471
-30.5928
-34.2946
-36.051
-35.859
-34.2346
-32.0438
-30.2479
-29.6723
-30.9092
-34.2626
-39.7441
-47.0181
-55.3918
-63.8682
-71.259
-76.4857
-78.9363
-78.7138
-76.6661
-74.1481
-72.5642
-72.8817
-75.3139
-79.2626
-83.6244
-87.2746
-89.5481
-90.4502
-90.5722
-90.7852
-91.7667
-93.6111
-95.7023
-96.9269
-95.9783
-91.871
-84.3308
-73.9239
-61.8903
-49.7802
-39.0284
-30.5501
-24.5835
-20.7799
-18.4681
-16.9332
-15.6933
-14.5888
-13.7245
-13.3627
-13.7108
-14.8046
-16.4657
-18.3434
-20.057
-21.4209
-22.5301
-23.7184
-25.339
-27.5089
-29.9391
-31.9479
-32.7706
-31.9652
-29.7033
-26.7465
-24.1708
-22.8715
-23.1442
-24.5967
-26.3795
-27.6501
-27.9738
-27.5013
-26.7983
-26.4955
-26.8849
-27.7592
-28.5103
-28.4711
-27.2873
-25.0565
-22.3678
-20.0905
-19.0758
-19.8734
-22.5983
-26.8357
-31.7237
-36.1588
-39.0769
-39.787
-38.2086
-34.9428
-31.0761
-27.7597
-25.7682
-25.2568
-25.7739
-26.5739
-27.0925
-27.2191
-27.3278
-27.982
-29.5116
-31.7224
-33.8701
-34.9735
-34.2588
-31.6296
-27.776
-23.9244
-21.3005
-20.6211
-21.842
-24.2525
-26.8791
-28.9942
-30.4935
-31.8722
-33.8628
-36.9236
-40.8603
-44.7407
-47.2421
-47.1922
-44.1315
-38.5793
-31.9435
-26.0147
-22.3116
-21.5274
-23.2484
-26.1627
-28.5274
-28.8116
-26.2978
-21.4013
-15.6243
-11.2219
-10.652
-15.878
-27.7201
-45.4257
-66.5241
-87.1396
-102.722
-109.05
-103.29
-84.8634
-55.6892
-19.8031
17.5198
50.9346
76.1334
90.5406
93.53
86.1962
70.8832
50.6284
28.6115
7.70724
-9.91438
-23.0707
-31.698
-36.6886
-39.4883
-41.5285
-43.7692
-46.4553
-49.0809
-50.7337
-50.58
-48.2296
-43.9351
-38.5947
-33.5708
-30.2859
-29.7648
-32.2668
-37.1487
-42.9586
-47.8759
-50.3398
-49.6303
-46.0846
-40.9125
-35.6578
-31.5977
-29.3473
-28.8348
-29.6028
-31.2999
-33.8878
-37.5503
-42.3633
-47.9418
-53.3831
-57.5196
-59.4832
-59.1714
-57.3361
-55.3047
-54.4423
-55.4742
-58.2429
-61.8552
-65.2171
-67.5554
-68.7203
-69.0868
-69.2085
-69.394
-69.4493
-68.742
-66.5889
-62.6877
-57.2863
-51.0996
-45.0385
-39.7775
-35.4024
-31.3356
-26.6228
-20.2865
-11.6908
-0.842618
11.6402
24.6781
37.0878
47.8059
56.0012
61.1695
63.2354
62.5825
60.0987
57.0148
54.5986
53.7004
54.4434
56.2434
58.1797
59.4908
60.0408
60.4515
61.7849
64.9151
69.9018
75.9177
81.4707
84.9291
85.2586
82.4184
77.3665
71.6705
66.983
64.5632
65.0031
68.2612
73.7746
80.6412
87.7104
93.6954
97.352
97.7954
94.7012
88.5507
80.6065
72.588
66.2221
62.7531
62.6764
65.6623
70.7037
76.4279
81.3822
84.4005
84.8142
82.5253
78.0409
72.2987
66.3581
61.1166
57.0386
54.1589
52.2207
50.942
50.2492
50.3484
51.6108
54.2367
57.9676
61.9906
65.1288
66.2392
64.7061
60.6392
54.8684
48.6338
43.0935
38.9027
36.089
34.2584
32.8895
31.5947
30.2908
29.1408
28.4219
28.3796
28.9923
30.0957
31.5479
33.274
35.1807
37.0719
38.587
39.0563
37.6469
33.8208
27.7541
20.5702
14.1832
10.6531
11.4116
16.5807
24.8003
33.6062
40.3355
43.1844
41.9114
37.8928
33.301
30.0617
28.8064
28.2731
25.7537
18.2014
3.80446
-16.7323
-39.8252
-59.941
-71.0938
-68.7738
-51.685
-22.2897
13.9343
50.1259
80.0218
99.6098
107.9
106.478
98.314
86.4398
72.9971
59.0053
44.6978
30.2029
15.9685
2.8628
-8.02748
-15.7969
-20.0616
-21.1592
-20.0441
-17.9981
-16.2557
-15.6522
-16.5139
-18.6465
-21.5274
-24.7135
-28.1944
-32.2374
-37.1952
-43.0637
-49.0803
-53.7332
-55.2212
-52.1329
-44.149
-32.4516
-19.5253
-8.37637
-1.58299
-0.513505
-5.04223
-13.7497
-24.5836
-35.7122
-45.8677
-54.2961
-60.4892
-64.0597
-64.8526
-63.2042
-60.1624
-57.5114
-57.3942
-61.3672
-69.6354
-80.7367
-91.8452
-99.6612
-101.605
-96.7242
-86.0936
-72.4477
-59.3761
-50.0776
-46.2597
-47.7404
-52.7774
-58.7693
-63.2985
-65.1759
-64.7145
-63.2543
-62.2744
-62.5698
-63.6764
-63.7903
-60.5802
-52.1985
-38.2847
-20.4469
-1.84911
13.6973
22.8299
23.8592
17.4372
6.27779
-5.89822
-15.6028
-20.7608
-21.4895
-19.8911
-19.1882
-22.3328
-30.5622
-42.6575
-55.0826
-63.23
-63.2678
-53.6444
-36.0804
-15.1678
3.33371
14.6486
16.5988
10.1404
-1.38823
-13.9845
-24.7381
-32.6308
-38.3228
-43.0888
-47.5037
-50.8761
-51.6368
-48.2845
-40.5112
-29.6441
-18.3364
-9.42385
-4.62222
-3.96763
-5.88679
-7.97387
-8.09445
-5.27684
-0.105287
5.59929
9.52333
9.59093
4.69969
-4.96921
-17.8539
-31.2888
-42.017
-47.0364
-44.4363
-34.1051
-17.9284
0.49817
16.739
26.8091
28.4246
21.7926
9.47547
-4.37213
-15.4508
-20.7117
-19.0873
-11.5484
-0.523761
11.1448
21.0684
27.7813
30.7595
30.0859
26.2152
19.964
12.6077
5.92029
1.97507
2.53421
8.45836
19.1856
32.619
45.6085
54.631
56.641
49.634
33.0994
8.25319
-21.7299
-51.6616
-74.9321
-84.872
-76.6114
-48.9247
-5.37478
46.3084
96.4698
136.403
160.82
168.986
163.914
150.319
132.523
113.232
93.5126
73.7262
54.5153
37.096
22.8265
12.3778
5.40202
0.76107
-2.71868
-5.36826
-6.34114
-4.04271
2.73573
13.8437
27.4124
40.3244
49.2402
51.7213
47.0789
36.6143
23.0555
9.65835
-0.652648
-5.9645
-5.75985
-0.90339
6.67518
14.4447
20.0312
21.9592
20.0846
15.5883
10.5285
6.97584
6.05461
7.40199
9.26381
9.26423
5.53896
-2.3303
-12.9311
-23.509
-31.0106
-33.3891
-30.4975
-24.148
-17.3097
-12.8394
-12.2806
-15.2931
-19.9095
-23.5984
-24.4589
-22.0461
-17.4356
-12.5551
-9.12015
-7.81465
-8.09897
-8.63104
-8.02313
-5.53421
-1.37042
3.53826
8.17267
12.0166
15.2979
18.8526
23.6006
30.0714
38.1059
46.8363
55.034
61.6281
66.0568
68.3576
69.0862
69.0357
68.8226
68.6643
68.2666
66.9688
64.0086
58.8498
51.4551
42.4388
32.9569
24.5098
18.5556
16.0945
17.4234
22.0968
29.0528
36.8082
43.8988
49.2016
52.1486
52.7652
51.6128
49.5058
47.2906
45.5953
44.6796
44.452
44.5443
44.452
43.7874
42.4767
40.8039
39.3132
38.609
39.173
41.11
44.1568
47.7777
51.3406
54.2983
56.2217
56.836
56.0104
53.8
50.5045
46.7075
43.2375
40.9423
40.4641
41.9503
44.8926
48.3173
51.1341
52.5597
52.4051
51.0893
49.3691
47.9107
46.9087
46.0482
44.7725
42.6677
39.7918
36.7184
34.2401
32.9482
32.8807
33.5669
34.3152
34.5951
34.3329
33.857
33.6474
33.948
34.5641
34.8839
34.2252
32.2051
28.9494
25.1021
21.6183
19.4273
19.096
20.4753
22.5848
23.7524
21.9265
15.2733
2.97499
-14.1204
-33.2236
-49.9503
-59.3251
-57.1464
-41.3644
-12.8842
24.3943
64.4576
100.636
127.18
140.49
139.71
126.539
104.498
77.848
50.5642
25.5737
4.53747
-12.0143
-24.3314
-32.939
-38.2782
-40.6386
-40.2968
-37.7503
-33.8154
-29.5178
-25.9667
-24.0885
-24.3616
-26.7657
-30.8863
-36.1082
-41.7836
-47.3864
-52.5948
-57.3712
-61.8927
-66.4064
-71.0404
-75.6424
-79.6935
-82.4775
-83.397
-82.2591
-79.4671
-75.963
-72.9802
-71.5905
-72.4194
-75.5873
-80.8274
-87.6121
-95.2891
-103.146
-110.387
-116.256
-120.208
-122.247
-123.011
-123.632
-125.267
-128.601
-133.519
-139.052
-143.759
-146.379
-146.347
-143.956
-140.181
-136.247
-133.164
-131.387
-130.766
-130.698
-130.316
-128.75
-125.306
-119.631
-111.822
-102.482
-92.6262
-83.441
-75.9108
-70.5404
-67.3504
-65.9253
-65.6417
-65.9342
-66.4592
-67.0068
-67.4194
-67.5184
-67.1996
-66.5211
-65.714
-65.1357
-65.0784
-65.6299
-66.6146
-67.6954
-68.4845
-68.7991
-68.7196
-68.4709
-68.2832
-68.2884
-68.5195
-68.9989
-69.8982
-71.5857
-74.4319
-78.5354
-83.4511
-88.0544
-90.7421
-89.9744
-84.8638
-75.6214
-63.6495
-51.1532
-40.4522
-33.3292
-30.6084
-32.0955
-36.8312
-43.494
-50.8242
-57.7406
-63.4326
-67.2784
-68.7306
-67.3399
-63.0158
-56.1646
-47.785
-39.4813
-33.0855
-30.1843
-31.557
-36.8372
-44.5488
-52.5042
-58.5602
-61.2865
-60.3149
-56.3101
-50.545
-44.3551
-38.6905
-33.9746
-30.2135
-27.3259
-25.3704
-24.5853
-25.1719
-27.0325
-29.6844
-32.2938
-33.8623
-33.6734
-31.6463
-28.3128
-24.7101
-22.0949
-21.4448
-23.0516
-26.3567
-29.9454
-31.9517
-30.6409
-25.0686
-15.543
-3.60078
8.37241
17.9914
23.7715
25.5659
24.5479
22.4866
20.7819
19.6245
17.8289
13.3284
4.16085
-10.2785
-28.4186
-46.4203
-58.9965
-60.8474
-48.3134
-20.7206
19.0664
65.172
110.002
146.081
167.903
173.084
162.693
140.659
112.575
84.1976
60.1833
43.265
34.0978
31.5212
33.2233
36.5525
39.1925
39.6695
37.541
33.3053
28.1011
23.2774
19.9917
18.7845
19.4662
21.2766
23.2504
24.6341
25.1291
24.9906
24.7499
24.836
25.2663
25.5706
25.0234
23.069
19.6519
15.4481
11.5733
9.06733
8.37703
9.04629
9.82315
9.2046
6.18711
0.72058
-6.16369
-12.7038
-17.1019
-18.275
-16.3153
-12.4706
-8.79042
-7.44792
-10.0352
-17.0548
-27.6179
-39.6001
-50.3154
-57.3455
-59.2083
-55.8844
-48.7851
-40.2871
-32.938
-28.67
-28.3058
-31.4152
-36.4976
-41.5645
-44.7172
-44.5655
-40.4857
-32.6022
-21.631
-8.64305
5.08801
18.2084
29.4318
37.6772
42.2503
43.0946
40.896
36.8582
32.3599
28.567
26.0394
24.5673
23.4572
21.9164
19.5297
16.5922
13.9713
12.6976
13.47
16.3751
20.7796
25.5777
29.6963
32.4648
33.753
33.8216
32.9912
31.3802
28.9563
25.6509
21.5796
17.2808
13.6032
11.3825
11.012
12.2609
14.3531
16.3253
17.5199
17.8874
18.0566
18.9252
21.1433
24.8001
29.3084
33.63
36.6715
37.6846
36.5265
33.5974
29.6302
25.3922
21.5396
18.4769
16.3356
15.0057
14.2202
13.6461
12.9892
12.207
11.5067
11.2639
11.8864
13.5828
16.1007
18.7456
20.6
20.8999
19.3994
16.5578
13.3334
10.7701
9.52481
9.55437
10.2193
10.6152
10.1413
8.7835
7.08952
5.96934
6.29902
8.49677
12.245
16.4538
19.3248
18.6355
12.2718
-1.03766
-20.8838
-44.6882
-67.8099
-84.421
-89.1056
-78.5921
-52.9882
-16.1065
25.5168
64.3318
93.7717
109.863
111.817
101.597
82.7999
59.4402
34.8785
11.4545
-9.47967
-27.1528
-41.0907
-50.9566
-56.4789
-57.5546
-54.5231
-48.3501
-40.5779
-33.0834
-27.7256
-25.8032
-27.7529
-33.0264
-40.4162
-48.618
-56.6885
-64.2085
-71.1054
-77.216
-82.023
-84.6735
-84.4326
-81.1997
-75.7898
-69.8525
-65.3758
-63.9359
-66.1423
-71.5568
-78.9433
-86.8022
-93.8807
-99.5343
-103.771
-107.03
-109.856
-112.647
-115.528
-118.302
-120.566
-121.93
-122.228
-121.668
-120.775
-120.252
-120.709
-122.415
-125.178
-128.433
-131.495
-133.83
-135.234
-135.805
-135.741
-135.161
-133.967
-131.92
-128.806
-124.572
-119.354
-113.335
-106.531
-98.7396
-89.713
-79.4509
-68.4593
-57.7615
-48.7188
-42.6598
-40.458
-42.2658
-47.5527
-55.3552
-64.5032
-73.7224
-81.7291
-87.2853
-89.3521
-87.3371
-81.3317
-72.2191
-61.5726
-51.3467
-43.3965
-39.1057
-39.1464
-43.4025
-51.0888
-60.9134
-71.2677
-80.4169
-86.7786
-89.1698
-87.1226
-81.1109
-72.5396
-63.3463
-55.4423
-50.2156
-48.1859
-48.9885
-51.7157
-55.4296
-59.5344
-63.827
-68.2169
-72.3645
-75.5628
-76.8456
-75.3784
-70.8946
-63.9567
-55.8573
-48.1982
-42.3489
-39.0364
-38.2041
-39.1759
-41.1217
-43.4329
-45.9015
-48.6533
-51.8728
-55.4559
-58.8582
-61.244
-61.7377
-59.6757
-54.9181
-47.9543
-39.7728
-31.6489
-24.9512
-20.7755
-19.6558
-21.3992
-25.0551
-29.0519
-31.6948
-31.6898
-28.53
-22.587
-14.9142
-6.95076
-0.156288
4.14755
4.91536
1.46215
-6.38184
-18.0038
-31.7291
-44.7835
-53.62
-54.6538
-45.3058
-24.8382
5.20452
41.1464
77.9624
110.342
133.829
145.589
144.767
132.473
111.475
85.721
59.6177
37.2166
21.5319
13.9025
13.7827
19.143
27.2292
35.3875
41.6856
45.2095
45.9058
44.2211
40.7398
36.0999
30.9707
26.1531
22.5473
20.9689
21.7666
24.5629
28.3134
31.6143
33.1611
32.3416
29.4662
25.6213
22.1301
20.0359
19.7277
20.8483
22.5896
24.0321
24.3849
23.1347
20.0392
15.1511
8.94191
2.21846
-3.95505
-8.53524
-10.914
-11.2591
-10.5188
-10.0985
-11.2335
-14.4655
-19.4418
-24.9669
-29.5009
-31.8553
-31.6254
-29.2697
-25.8552
-22.5921
-20.3782
-19.6371
-20.3896
-22.3112
-24.7819
-26.8895
-27.419
-25.0478
-18.7923
-8.51336
4.73473
18.9137
31.5999
40.83
45.7885
47.1339
46.5632
46.0449
46.9321
49.4134
52.4503
54.2365
53.0364
47.848
38.9675
28.0163
17.4675
9.91986
7.3836
10.5791
18.6249
29.2522
39.4781
46.5233
48.7616
46.2404
40.4861
33.7885
28.1844
24.6939
23.0994
22.3989
21.5875
20.3241
19.1579
19.23
21.5082
26.1056
32.1043
37.8838
41.7826
42.8202
41.0631
37.4822
33.3591
29.7364
27.1141
25.4917
24.7252
24.8668
26.148
28.7172
32.2685
35.9111
38.3106
38.24
35.2239
29.8724
23.7465
18.7647
16.4668
17.3909
20.9164
25.5591
29.6026
31.7277
31.3858
28.8045
24.7802
20.401
16.7616
14.731
14.8373
17.1608
21.2192
26.026
30.3448
33.1293
33.9256
33.1852
32.1066
32.1032
34.1298
38.0967
42.6412
45.3393
43.4912
35.0018
19.2634
-2.34316
-26.4077
-48.0068
-61.6407
-62.5384
-47.9108
-17.8852
24.1423
72.0292
118.11
154.936
176.998
181.904
170.628
146.948
116.218
83.9215
54.5468
30.9658
14.4155
4.76598
0.967604
1.47114
4.55114
8.53391
12.0744
14.3344
15.0495
14.5202
13.296
11.8937
10.5685
9.20297
7.52936
5.40798
3.0218
0.910669
-0.298909
-0.235578
0.995516
2.82754
4.50709
5.43856
5.46017
4.76166
3.64442
2.19254
0.134303
-3.02267
-7.61958
-13.4657
-19.7684
-25.4045
-29.3471
-31.137
-31.1297
-30.3264
-29.955
-31.0275
-33.9662
-38.5193
-43.9216
-49.252
-53.7247
-56.8171
-58.409
-58.7621
-58.3222
-57.5389
-56.6735
-55.6918
-54.2764
-52.0568
-48.9
-45.0643
-41.2194
-38.1482
-36.2738
-35.2501
-33.9766
-30.8973
-24.6492
-14.7527
-1.98313
11.8278
24.3574
33.5259
38.1729
38.2983
34.8962
29.475
23.5337
18.1371
13.732
10.2948
7.60205
5.44559
3.78326
2.78562
2.67253
3.49755
4.98866
6.57952
7.55923
7.33689
5.68856
2.86333
-0.459817
-3.47703
-5.55857
-6.51327
-6.65577
-6.64154
-7.20173
-8.82862
-11.6197
-15.3094
-19.4324
-23.5056
-27.202
-30.3355
-32.7257
-34.1058
-34.1057
-32.407
-28.9925
-24.2432
-18.9463
-14.1115
-10.6886
-9.27858
-10.0549
-12.8799
-17.4696
-23.4826
-30.4791
-37.7767
-44.3223
-48.7917
-49.9661
-47.1885
-40.7801
-32.1254
-23.2783
-16.3166
-12.6692
-12.6957
-15.7
-20.3914
-25.5519
-30.4911
-35.1821
-40.0112
-45.3597
-51.1662
-56.7741
-61.102
-62.9985
-61.7228
-57.3169
-50.6238
-43.0869
-36.3039
-31.5236
-29.2675
-29.2077
-30.4066
-31.7441
-32.4185
-32.2057
-31.3779
-30.412
-29.7612
-29.784
-30.9163
-34.0191
-40.3666
-51.2292
-67.016
-86.4237
-106.084
-121.021
-126.015
-117.284
-93.9416
-58.5718
-16.7186
24.5456
58.423
80.0128
87.2299
80.9038
64.0916
41.1029
16.4489
-6.05955
-23.8509
-35.8357
-42.3346
-44.7845
-45.2204
-45.6125
-47.3089
-50.7471
-55.4742
-60.4363
-64.5004
-66.8291
-67.1858
-65.8781
-63.5892
-61.1752
-59.3934
-58.6938
-59.1439
-60.4614
-62.173
-63.8114
-65.1047
-66.0914
-67.002
-68.0316
-69.1588
-70.0533
-70.1495
-68.9421
-66.3164
-62.7021
-59.0385
-56.4605
-55.9056
-57.785
-61.8471
-67.3584
-73.4546
-79.46
-84.9748
-89.7826
-93.6412
-96.1941
-97.0325
-96.0141
-93.595
-90.795
-88.9077
-88.9746
-91.1807
-94.6154
-97.534
-98.0401
-94.8469
-87.8788
-78.3847
-68.5211
-60.5312
-55.8963
-54.7941
-55.9952
-57.276
-56.1637
-50.7448
-40.3057
-25.5753
-8.52064
8.23996
22.1363
31.3298
35.1393
34.0485
29.4307
23.0334
16.5275
11.2212
7.93777
7.09777
8.79523
12.7923
18.5188
25.0962
31.4264
36.3742
39.0785
39.145
36.6688
32.1871
26.5253
20.6087
15.3227
11.4382
9.60899
10.2882
13.5956
19.1918
26.2194
33.3811
39.241
42.6264
42.9587
40.4987
36.231
31.5586
27.8077
25.7995
25.6882
27.0315
29.1005
31.2816
33.3576
35.5467
38.4096
42.4597
47.8382
54.1131
60.3401
65.2436
67.6614
66.9266
63.1246
57.1282
50.3582
44.5137
41.1005
41.0921
44.72
51.4485
60.1059
69.1384
77.0606
82.7153
85.4574
85.2312
82.5077
78.0972
72.9387
68.0486
64.3922
62.8036
63.8505
67.6508
73.7449
81.2734
89.1015
96.1475
101.627
105.19
106.805
106.55
104.523
100.849
95.8984
90.5749
86.3574
84.968
87.6656
94.4776
103.696
112.089
115.798
111.788
99.2517
80.2167
59.2917
42.4097
35.0781
40.7062
59.7252
89.5781
125.552
161.955
193.354
215.545
226.235
225.077
213.505
194.27
170.772
146.319
123.564
104.228
89.0401
78.0246
70.8702
67.1086
66.188
67.3907
69.8137
72.4392
74.3543
75.009
74.3011
72.5595
70.2607
67.7926
65.2986
62.6987
59.7383
56.208
52.0885
47.5666
42.9932
38.7918
35.4642
33.5478
33.4917
35.4928
39.2765
43.9351
47.9928
49.8556
48.3182
43.0923
35.0163
25.7521
17.1601
10.6368
6.64257
4.6962
3.77602
2.84723
1.2831
-1.06588
-4.02254
-7.27532
-10.5374
-13.5893
-16.1758
-17.9657
-18.6358
-18.0361
-16.404
-14.3381
-12.6095
-11.7169
-11.5599
-11.328
-9.81148
-5.95937
0.584403
9.24625
18.7917
27.8312
35.424
41.3936
46.1646
50.4138
54.5968
58.6991
62.227
64.5627
65.313
64.4473
62.3143
59.5026
56.6613
54.3381
52.9052
52.5615
53.3271
55.0478
57.3827
59.8656
61.9662
63.1969
63.3031
62.3326
60.6873
58.9673
57.7816
57.537
58.2286
59.4648
60.5781
60.9062
60.0651
58.0983
55.5376
53.2231
51.961
52.1704
53.7526
56.124
58.4029
59.7989
59.9188
58.9192
57.3893
56.0612
55.5035
55.8895
56.98
58.3043
59.4505
60.2446
60.7958
61.4394
62.4547
63.8972
65.481
66.66
66.8592
65.7712
63.5663
60.8788
58.5699
57.3361
57.3602
58.2188
59.0902
59.1148
57.9022
55.7637
53.5856
52.414
52.9871
55.3598
58.8806
62.5041
65.2014
66.3543
65.8718
64.0565
61.3028
57.8704
53.8134
49.104
43.8777
38.6214
34.1528
31.374
30.9315
32.9986
37.2385
42.8909
49.0615
54.9661
59.9199
63.3256
64.6869
63.6353
60.1248
54.6473
48.2964
42.5099
38.5544
36.8774
36.6447
35.8673
32.085
23.3372
9.32034
-7.94455
-24.3435
-34.7611
-34.6741
-21.7126
3.40616
36.8987
73.0211
105.65
129.907
143.195
145.404
138.384
124.936
107.951
89.7512
71.8466
55.11
40.0824
27.0926
16.3494
7.87433
1.46711
-3.22975
-6.65445
-9.16426
-10.9778
-12.1461
-12.7188
-12.8836
-12.9283
-13.146
-13.7371
-14.7099
-15.9294
-17.2186
-18.5109
-19.9186
-21.602
-23.5807
-25.5978
-27.1863
-27.8709
-27.4032
-26.0108
-24.4217
-23.6577
-24.7243
-28.2559
-34.3079
-42.341
-51.3562
-60.1698
-67.6422
-72.9012
-75.5378
-75.7444
-74.3102
-72.4548
-71.5758
-72.8256
-76.7155
-82.8905
-90.2435
-97.3093
-102.811
-106.103
-107.308
-107.141
-106.451
-105.728
-104.9
-103.409
-100.51
-95.7123
-89.0721
-81.1664
-72.848
-64.9282
-57.9494
-52.1385
-47.5598
-44.3357
-42.711
-42.8323
-44.433
-46.6037
-47.8395
-46.3935
-40.9859
-31.4806
-19.1536
-6.47376
3.62991
8.77052
7.95639
1.89595
-7.33592
-17.0779
-25.0688
-30.1986
-32.6571
-33.5741
-34.3512
-35.9836
-38.7126
-42.0675
-45.2044
-47.3317
-47.9931
-47.1316
-44.9254
-41.5976
-37.3588
-32.4303
-27.1004
-21.8129
-17.2125
-14.0045
-12.7372
-13.7486
-17.0568
-22.3597
-29.062
-36.2542
-42.7284
-47.1571
-48.4427
-46.1032
-40.5345
-33.0414
-25.4576
-19.523
-16.2693
-15.7861
-17.2988
-19.6559
-21.8641
-23.4551
-24.4912
-25.3737
-26.5194
-28.1025
-29.9765
-31.8256
-33.2607
-33.9406
-33.6346
-32.2908
-30.0613
-27.3217
-24.6619
-22.7491
-22.1557
-23.0989
-25.2516
-27.8172
-29.81
-30.4082
-29.3486
-27.074
-24.6291
-23.2691
-23.9509
-26.942
-31.6627
-36.882
-41.1779
-43.4763
-43.4513
-41.6553
-39.1544
-37.0295
-35.8469
-35.3678
-34.7638
-33.1108
-30.0007
-25.8817
-22.0187
-19.9708
-20.8934
-24.9888
-31.3243
-38.1681
-43.5948
-46.0007
-44.5117
-39.1259
-30.517
-19.7988
-8.34078
2.2475
10.202
13.7757
11.4568
2.3807
-13.2997
-34.1379
-57.4436
-79.6606
-96.9167
-105.541
-102.752
-87.2008
-59.354
-21.7294
21.2307
63.6864
99.4038
123.017
131.249
123.735
103.159
74.596
44.1577
17.4113
-1.91047
-12.6613
-16.2544
-15.7238
-14.3319
-14.3516
-16.3763
-19.3619
-21.3622
-20.7298
-17.0219
-11.1611
-4.918
0.0319465
2.82306
3.78598
4.01587
4.43435
5.00099
4.57322
1.51884
-5.17549
-14.9538
-25.3958
-32.9709
-34.4341
-28.2582
-15.3788
1.01838
16.6794
27.7782
32.1814
29.8498
22.4733
12.6401
2.9144
-4.83099
-9.61515
-11.1462
-9.5436
-5.25726
0.922045
7.94525
14.51
19.2487
21.0199
19.305
14.4537
7.66675
0.750942
-4.36571
-6.18423
-4.10769
1.42639
9.06089
17.0284
23.7994
28.5329
31.3036
32.9287
34.4979
36.9255
40.6908
45.7799
51.8538
58.4771
65.3084
72.1459
78.8206
85.1431
90.8541
95.5578
98.7788
100.095
99.2548
96.3325
91.7705
86.2658
80.7416
76.1335
73.1796
72.2739
73.3954
76.0358
79.3651
82.3723
84.0577
83.7149
81.117
76.5719
70.8426
64.8531
59.464
55.1589
51.9432
49.3632
46.8103
43.9551
40.981
38.5212
37.5088
38.747
42.4555
48.1073
54.5885
60.4765
64.5475
66.0704
64.8118
60.9392
54.7825
46.8401
37.7954
28.6905
20.9117
16.1135
15.6446
19.9127
28.1616
38.5489
48.4752
55.3761
57.4961
54.4028
46.8875
36.6875
25.8968
16.3856
9.42632
5.45367
4.22588
5.17588
7.57922
10.7851
14.2793
17.6696
20.4753
22.2846
22.8017
21.9584
19.9434
17.2361
14.5489
12.4216
11.0213
9.95521
8.30382
4.84173
-1.3798
-10.4058
-21.0188
-31.0244
-37.7755
-39.1031
-34.2035
-24.0568
-11.0809
1.71259
11.6492
17.2174
18.2832
15.9733
11.917
7.50404
3.59158
0.431426
-2.16757
-4.5936
-7.28889
-10.7779
-15.9746
-24.1303
-36.3803
-53.0898
-73.3354
-94.4052
-112.092
-121.655
-119.029
-102.048
-71.3108
-30.2358
15.5286
59.2946
94.7063
116.951
123.633
115.038
93.7654
64.1183
31.1738
-0.177164
-26.0482
-44.3151
-54.808
-59.1438
-60.1684
-61.0288
-64.1653
-70.4973
-79.0801
-87.6935
-93.7305
-95.1083
-91.0235
-82.2609
-70.7923
-59.2552
-50.3512
-46.3421
-48.7459
-58.0296
-73.2776
-92.0559
-110.645
-124.744
-130.68
-126.745
-113.734
-94.9445
-74.9781
-58.4019
-48.3474
-45.8536
-50.1341
-59.4549
-71.9601
-86.1064
-100.659
-114.329
-125.531
-132.629
-134.251
-129.896
-120.129
-106.443
-90.9191
-75.8723
-63.7999
-57.3598
-58.868
-69.3392
-87.5131
-109.412
-128.966
-139.845
-138.115
-124.266
-103.498
-83.6269
-71.8639
-71.4184
-79.9688
-90.4658
-94.4188
-85.69
-63.1003
-30.7513
3.8873
33.0196
51.4127
57.3976
52.172
38.5879
19.5871
-2.27897
-24.4868
-43.9071
-57.0271
-60.871
-54.2712
-38.4621
-16.9777
5.3985
24.2959
36.9923
42.7413
42.1466
36.4145
26.8383
14.8912
2.49295
-7.81458
-13.3041
-12.0828
-4.13884
8.47354
22.3016
33.6783
40.0926
40.9827
37.469
31.2819
23.8068
15.7758
7.57601
0.00611191
-5.25265
-5.98645
-0.50016
11.3162
27.4013
43.9868
56.9074
63.226
62.3017
55.7119
46.24
36.4981
27.9404
20.7365
14.4549
9.00126
5.19828
4.598
8.58259
17.375
29.5541
42.417
52.8978
58.831
59.7121
56.6077
51.4408
46.0441
41.4127
37.573
34.0559
30.486
26.9167
23.9405
22.2185
22.0173
23.0211
24.4599
25.4936
25.6238
24.8939
23.7687
22.8385
22.4566
22.6675
23.272
24.0686
25.1302
26.7118
29.1638
32.6474
36.9867
41.7806
46.4697
50.5179
53.3669
54.3302
52.4854
46.6722
35.8198
19.5843
-1.07281
-23.6711
-44.4503
-59.065
-63.6751
-55.9251
-35.5086
-4.34617
33.8312
74.239
111.847
142.126
161.664
168.426
162.066
143.939
116.976
85.2909
53.3986
25.4144
4.25949
-8.89852
-14.5661
-14.4962
-10.9424
-5.97708
-1.02721
3.15888
6.22976
7.94859
8.04385
6.30144
2.75475
-2.11517
-7.33003
-11.63
-13.9098
-13.6371
-11.1382
-7.47614
-4.10564
-2.36644
-3.02145
-5.98585
-10.4049
-14.8979
-18.0042
-18.7143
-16.7045
-12.3657
-6.66258
-0.956969
3.30026
4.84737
2.74205
-3.50163
-13.7202
-26.956
-41.4712
-54.9332
-64.9577
-69.7411
-68.6525
-62.4815
-53.3237
-43.8276
-36.3186
-32.0455
-31.0116
-32.3172
-34.8344
-37.8627
-41.3767
-45.7923
-51.2928
-57.2559
-62.1117
-63.7975
-60.5975
-51.8904
-38.4156
-22.1194
-5.4396
9.57163
21.7927
31.0354
37.6839
42.1452
44.4589
44.2133
40.9926
34.9027
26.9426
18.9456
13.0841
11.0234
13.2932
19.0439
26.3812
33.033
37.1298
37.7556
35.0361
29.8392
23.272
16.3894
10.0318
4.83073
1.25729
-0.393196
-0.16828
1.4112
3.30686
4.27868
3.35176
0.277984
-4.28259
-8.90943
-11.9795
-12.3195
-9.71471
-4.96523
0.367408
4.43484
5.7095
3.42502
-2.21554
-10.1148
-18.5668
-25.7803
-30.4074
-31.9363
-30.9015
-28.6538
-26.8167
-26.6542
-28.5265
-31.7941
-35.1807
-37.3993
-37.7745
-36.6157
-35.0493
-34.4303
-35.6706
-38.7734
-42.8765
-46.7434
-49.4037
-50.6735
-51.1961
-52.0295
-54.0465
-57.4466
-61.6756
-65.7791
-68.9376
-70.8748
-71.9492
-72.8444
-74.1266
-75.8917
-77.7092
-78.9074
-78.9667
-77.8047
-75.8255
-73.6523
-71.8235
-70.5672
-69.8368
-69.48
-69.435
-69.7613
-70.5924
-71.9469
-73.5589
-74.9584
-75.745
-75.9007
-75.9788
-77.0873
-80.6
-87.6785
-98.7314
-112.982
-128.293
-141.406
-148.539
-146.328
-132.823
-108.232
-75.0837
-37.8415
-1.96113
27.299
45.933
51.853
45.0999
27.5211
2.2931
-26.7487
-55.6318
-80.7508
-99.3433
-109.952
-112.621
-108.88
-101.384
-93.238
-87.1962
-84.9084
-86.5978
-91.08
-96.3208
-100.212
-101.309
-99.2993
-95.2054
-91.0311
-88.8986
-90.2207
-95.0236
-101.773
-107.949
-111.081
-109.855
-104.797
-98.1185
-92.7188
-90.8892
-93.1701
-98.2011
-103.309
-105.708
-103.817
-98.0159
-90.453
-84.1867
-81.9626
-85.228
-93.7425
-105.697
-118.494
-129.5
-136.774
-139.458
-137.862
-133.178
-127.108
-121.387
-117.195
-114.942
-114.239
-114.151
-113.579
-111.743
-108.414
-103.904
-98.8257
-93.7847
-89.193
-85.1555
-81.5719
-78.1127
-74.1793
-69.0292
-61.9254
-52.4049
-40.6002
-27.407
-14.3223
-2.99523
5.37944
10.4323
12.683
13.3523
13.7948
14.9342
16.9963
19.5486
21.6957
22.4858
21.358
18.3865
14.3712
10.6386
8.68162
9.73098
14.2865
21.864
31.0935
40.1235
47.1896
51.1002
51.542
49.14
45.2256
41.4273
39.2426
39.6523
42.9744
48.782
55.9719
63.0766
68.6203
71.5031
71.4928
69.2848
66.3123
64.2816
64.6293
67.9205
73.6149
80.3643
86.5604
91.0117
93.3305
94.0558
94.3002
95.0933
96.8491
99.1567
100.978
101.232
99.3765
95.799
91.777
88.951
88.5661
90.9174
95.1948
99.8157
103.071
103.777
101.599
96.9472
90.7442
84.1149
78.1001
73.5777
71.1877
71.1736
73.129
76.0012
78.3451
78.8505
76.9418
73.1432
69.0129
66.5123
67.1231
71.1343
77.4643
84.0489
88.6553
89.7675
87.1902
82.0666
76.3705
72.1946
70.9988
73.1013
77.4483
81.9064
83.8165
80.6167
70.6757
53.9485
32.1892
8.77367
-11.8513
-25.0023
-26.861
-15.3649
9.32166
44.6094
85.7939
126.911
161.923
185.967
196.365
193.064
178.428
156.394
131.239
106.524
84.5609
66.4055
52.2049
41.7169
34.6791
30.7564
29.4254
29.8344
30.8827
31.5796
31.3051
30.0626
28.2629
26.3642
24.5057
22.4183
19.5765
15.5392
10.3473
4.68658
-0.378888
-3.83738
-5.04888
-3.9237
-0.897826
3.3127
7.95582
12.3613
15.96
18.2512
18.7974
17.2671
13.5279
7.73367
0.296303
-8.14404
-16.865
-25.1147
-32.1877
-37.5728
-40.9711
-42.4242
-42.2627
-41.1177
-39.7111
-38.6765
-38.3398
-38.6422
-39.2068
-39.5771
-39.5017
-39.1516
-39.1303
-40.1801
-42.7782
-46.7404
-51.0471
-54.0724
-54.1958
-50.4483
-42.9211
-32.7479
-21.6777
-11.4048
-3.01168
3.23127
7.72198
11.0372
13.5141
15.1607
15.7421
15.15
13.6938
12.1213
11.2689
11.6684
13.2392
15.2861
16.878
17.3247
16.5577
15.2049
14.1958
14.2076
15.26
16.5551
16.7496
14.4989
9.05378
0.634029
-9.55653
-19.5888
-27.3633
-31.2169
-30.3923
-25.2169
-17.0217
-7.74664
0.552881
6.21412
8.27775
6.55301
1.52032
-5.94213
-14.8578
-24.2878
-33.4167
-41.5047
-47.9143
-52.1135
-53.7683
-52.8329
-49.6249
-44.8448
-39.4553
-34.4907
-30.9195
-29.4443
-30.4678
-34.0225
-39.8095
-47.2811
-55.6877
-64.179
-71.9074
-78.201
-82.6484
-85.1882
-86.0793
-85.7913
-84.8398
-83.6617
-82.4942
-81.3675
-80.2751
-79.2911
-78.5948
-78.5244
-79.4735
-81.71
-85.2101
-89.6198
-94.3087
-98.5091
-101.614
-103.35
-103.801
-103.295
-102.112
-100.239
-97.2884
-92.7296
-86.4427
-79.2268
-72.9835
-70.4669
-74.4903
-86.7376
-106.728
-131.488
-156.012
-174.421
-181.576
-174.449
-152.899
-119.683
-79.7899
-39.302
-4.19612
20.7543
32.751
31.2846
18.1061
-3.19469
-27.9898
-51.7468
-70.9964
-84.0725
-91.3948
-94.9964
-97.4982
-100.961
-105.985
-111.528
-115.499
-115.846
-111.624
-103.565
-93.8211
-85.0904
-79.5464
-78.1029
-80.3006
-84.7656
-89.9829
-94.9148
-99.1602
-102.691
-105.378
-106.719
-105.965
-102.537
-96.5687
-89.0814
-81.7476
-76.2846
-73.8125
-74.4784
-77.5259
-81.8416
-86.4532
-90.8803
-95.0859
-99.1506
-103.045
-106.485
-109.019
-110.176
-109.724
-107.766
-104.714
-101.13
-97.6699
-95.0511
-93.8016
-94.1305
-95.73
-97.7102
-98.8524
-97.9521
-94.2619
-87.8693
-79.6686
-71.0237
-63.2359
-56.9322
-51.7881
-46.7163
-40.3805
-31.7856
-20.7609
-8.06118
4.89726
16.5548
25.6375
31.4135
33.7394
33.0376
30.2896
27.0209
24.9839
25.821
30.5407
38.9329
49.3865
59.3805
66.3691
68.9477
67.5753
64.5011
62.9882
65.9477
74.5986
87.9317
103.085
116.431
125.018
127.591
124.851
118.944
112.489
107.598
105.337
105.68
107.918
111.133
114.561
117.711
120.375
122.599
124.491
126.051
127.212
127.839
127.724
126.757
125.146
123.374
122.196
122.313
123.974
126.629
128.941
129.216
126.149
119.439
110.177
100.66
93.5625
90.8873
93.3191
99.9232
108.546
116.596
121.863
123.115
120.172
113.755
105.198
96.1778
88.5201
83.8904
83.4308
87.4027
94.8684
103.789
111.585
115.95
115.511
110.441
102.374
93.7678
86.7375
82.1943
79.4567
76.2217
69.3003
55.8706
34.6724
6.812
-23.94
-51.5388
-69.0905
-70.4731
-52.1247
-14.3021
38.6273
98.867
156.892
203.531
231.905
238.764
224.842
194.262
153.403
109.436
68.8638
36.5196
14.8076
3.63649
0.874923
3.11567
6.67865
8.64582
7.51804
3.37374
-2.57111
-8.67116
-13.6268
-16.9239
-18.8785
-20.0917
-20.9026
-20.9821
-19.4551
-15.6485
-9.57628
-2.17205
4.90801
9.81294
11.2173
8.68176
2.53256
-6.62873
-18.2674
-31.8684
-46.5311
-60.5549
-71.3012
-75.9544
-72.5899
-61.2796
-44.5922
-27.0772
-13.6535
-7.8657
-10.5926
-19.8648
-31.9485
-43.1009
-51.1049
-56.0074
-59.661
-64.394
-71.6075
-80.9282
-90.3734
-97.1165
-98.7973
-94.5041
-85.1915
-73.2244
-61.2664
-51.2807
-43.9094
-38.4631
-33.6682
-28.6487
-23.6269
-19.8725
-19.1324
-22.5085
-29.5524
-38.1313
-45.1948
-47.8895
-44.6194
-35.7472
-23.3558
-10.3666
0.582613
7.84007
11.0747
10.9328
8.53721
5.03272
1.42238
-1.55351
-3.46595
-4.25861
-4.40555
-5.03117
-7.60444
-13.0764
-21.331
-30.8285
-38.9115
-42.8523
-40.9923
-33.6081
-22.8159
-11.8582
-3.82462
-0.469008
-1.58069
-5.32481
-9.16122
-11.0165
-10.0917
-6.92508
-2.79743
1.06572
4.12515
6.56587
8.82556
10.8212
11.6242
9.78408
4.33458
-4.15429
-13.2009
-19.117
-18.5356
-10.2258
3.71476
18.1489
26.9113
25.6976
14.2653
-2.95715
-18.4779
-24.92
-18.4237
-0.55771
22.3246
41.9976
51.9348
50.0992
39.514
26.5823
17.9665
17.7994
26.2167
39.9836
54.4136
65.6721
72.0487
74.0908
73.7987
73.4072
74.3484
76.767
79.6112
80.9558
78.2602
68.8818
50.9462
24.4133
-8.01429
-40.6791
-65.9029
-75.9486
-65.5093
-33.6024
15.7868
74.7812
133.735
183.753
218.588
235.493
235.002
220.034
194.876
164.199
132.4
103.011
78.2636
58.9657
44.7455
34.7156
28.1615
25.0515
25.9072
31.1359
40.1966
51.1741
61.2075
67.486
68.3411
64.0126
56.4487
48.407
42.2244
38.9926
38.3802
39.1844
40.0905
40.2132
39.2233
37.1199
33.928
29.6295
24.3597
18.6313
13.4741
10.2025
9.88175
12.8762
18.6023
25.6514
32.1822
36.4278
37.0495
33.3036
25.0664
12.94
-1.67702
-16.582
-29.1155
-36.7491
-37.9087
-32.6723
-22.806
-11.3378
-1.50758
4.31774
5.34848
2.36898
-2.86171
-8.6471
-14.0337
-18.9467
-23.7273
-28.3749
-31.9911
-32.8271
-28.9583
-19.2541
-4.1685
14.0285
31.8936
46.0322
54.3093
56.5443
54.3709
50.391
47.0653
45.7618
46.4181
47.9101
48.8772
48.448
46.5909
44.1239
42.192
41.7431
43.1103
45.8309
48.909
51.2363
51.9337
50.7044
47.9546
44.6961
42.1685
41.4114
42.7867
45.7694
49.103
51.2093
50.807
47.4848
41.9886
35.9885
31.4748
30.0473
32.3315
37.7783
44.9325
51.9797
57.4166
60.4654
61.1896
60.3171
58.8818
57.7506
57.3554
57.5926
57.8614
57.3462
55.3603
51.647
46.5485
40.9752
36.1735
33.2729
32.8701
34.7527
37.959
41.189
43.3649
44.0538
43.6463
43.0941
43.2697
44.501
46.3258
47.666
47.4468
45.2206
41.466
37.4329
34.584
33.9095
35.5433
38.6942
42.003
44.0853
43.8887
40.7542
34.3272
24.4741
11.2422
-4.86215
-22.4932
-39.3436
-52.3143
-58.1022
-54.0943
-39.1615
-14.179
18.0051
53.0169
85.7931
111.566
126.715
129.444
120.01
100.521
74.5066
46.145
19.4659
-2.3997
-17.6868
-26.205
-29.1719
-28.7511
-27.4557
-27.4829
-30.1416
-35.4933
-42.3525
-48.7538
-52.6954
-52.8965
-49.339
-43.4035
-37.3326
-33.3662
-32.9013
-36.0291
-41.6381
-47.9784
-53.5656
-57.7505
-60.7844
-63.5114
-66.7941
-70.9794
-75.7434
-80.304
-83.8506
-85.9802
-86.9307
-87.4136
-88.2825
-90.1554
-93.1191
-96.6776
-99.9207
-101.921
-102.162
-100.79
-98.6418
-97.0799
-97.5489
-101.122
-108.118
-117.987
-129.452
-140.839
-150.455
-156.852
-159.04
-156.597
-149.678
-138.989
-125.8
-111.82
-98.8247
-88.2248
-80.7594
-76.3561
-74.3075
-73.6706
-73.6875
-74.0644
-74.855
-76.0341
-77.1171
-77.0669
-74.5946
-68.7768
-59.5907
-48.1518
-36.4581
-26.5787
-19.9031
-16.7533
-16.5742
-18.5284
-22.1696
-27.7051
-35.7134
-46.4273
-58.9622
-71.0824
-79.7053
-82.0246
-76.7391
-64.717
-48.8785
-33.2083
-21.3387
-15.3897
-15.4277
-19.8218
-26.2224
-32.5668
-37.7385
-41.6056
-44.5618
-46.9115
-48.5521
-48.9348
-47.5586
-44.3603
-39.9421
-35.428
-31.9735
-30.2327
-30.0372
-30.4243
-30.0372
-27.6841
-22.8922
-16.1616
-8.91643
-3.11251
-0.590975
-2.41182
-8.40671
-17.143
-26.2605
-33.252
-36.3357
-34.9958
-30.0751
-23.389
-17.0093
-12.5354
-10.5816
-10.7869
-12.2265
-13.9113
-15.1708
-15.843
-16.1004
-16.1525
-15.9979
-15.3435
-13.8225
-11.3466
-8.27009
-5.39761
-3.7412
-4.08843
-6.56035
-10.4109
-14.1212
-15.7946
-13.8295
-7.63897
1.89646
12.3668
20.3908
22.6041
16.8972
3.34226
-15.5463
-35.274
-50.5631
-56.782
-51.167
-33.4537
-5.78137
27.8812
62.6785
93.7747
117.178
130.273
132.247
124.063
108.148
87.9269
67.0828
48.6677
34.5455
25.1533
19.6224
16.2968
13.4072
9.73918
4.96779
-0.344573
-5.13957
-8.33399
-9.29494
-8.12256
-5.54462
-2.59797
-0.161584
1.37362
2.17131
2.75079
3.61254
4.89261
6.20128
6.83495
6.13321
3.79534
0.0301997
-4.5732
-9.47984
-14.4843
-19.7168
-25.4052
-31.5081
-37.3967
-41.918
-43.8819
-42.6829
-38.7655
-33.5923
-29.2747
-27.8622
-30.5745
-37.3493
-46.8806
-57.1251
-66.0327
-72.2583
-75.5513
-76.6779
-77.011
-77.8759
-79.9268
-82.8781
-85.6175
-86.7082
-84.9722
-80.0275
-72.3475
-63.1206
-53.7556
-45.3744
-38.475
-32.9143
-28.0741
-23.2612
-17.9928
-12.096
-5.66792
1.02206
7.64751
13.7477
18.6574
21.5788
21.8117
19.0854
13.9188
7.70552
2.44095
0.1026
1.91262
7.85196
16.6303
26.1512
34.2238
39.2948
40.8773
39.5226
36.3576
32.6152
29.162
26.2957
23.8455
21.452
18.7945
15.734
12.3169
8.80233
5.66171
3.52099
3.12633
5.16361
9.96314
17.2128
25.8224
34.148
40.4022
43.2033
42.0525
37.4506
30.703
23.4596
17.2267
13.0372
11.4261
12.5228
16.1685
21.9858
29.2577
36.8672
43.457
47.737
48.8316
46.6758
42.1155
36.584
31.6217
28.3536
27.1446
27.5466
28.598
29.262
28.8488
27.3255
25.3099
23.889
24.2032
26.9123
31.8097
37.7919
43.1619
46.1706
45.6904
41.6485
35.0816
27.6883
21.1024
16.2603
13.1361
11.0532
9.39474
8.22678
8.43804
11.3553
17.8152
27.3811
38.2144
47.6507
53.2919
54.1515
51.0227
46.0901
41.7882
39.6745
39.8632
41.0594
41.3538
39.0027
33.0979
23.7707
12.0191
-0.459518
-11.4328
-18.2358
-18.021
-8.34201
12.0108
42.3115
79.6104
119.135
155.293
182.981
198.655
200.859
190.289
169.321
141.565
111.465
83.7316
62.607
51.0482
49.9967
58.1118
72.0397
87.3202
99.7385
106.295
105.75
98.5453
86.5343
72.4206
59.1706
49.5983
45.8021
48.6792
57.5573
70.1728
83.1819
93.2097
97.8301
96.2885
89.6686
80.388
71.2489
64.4877
61.1239
60.8193
62.3526
64.298
65.5507
65.5955
64.4839
62.5794
60.1267
57.0243
52.8968
47.5136
41.0593
34.2657
28.2176
24.0296
22.293
22.7326
24.2373
25.2912
24.5897
21.4239
15.7685
8.11687
-0.717533
-9.81832
-18.0976
-24.1505
-26.3406
-23.1968
-14.0421
0.378256
17.8859
35.5587
50.6077
61.3382
67.6196
70.5065
71.337
70.9257
69.3234
66.1835
61.5873
56.5984
53.1735
53.3581
58.3282
67.5584
78.8688
89.2093
95.9045
97.6064
94.644
88.6366
81.5492
74.9036
69.3421
64.8574
61.2324
58.4784
56.9941
57.2029
59.0896
62.041
64.9705
66.7136
66.6946
65.2232
63.2519
62.0099
62.3379
64.3079
67.2052
69.8657
71.1498
70.383
67.6181
63.6253
59.5446
56.5494
55.4741
56.5092
59.1409
62.3452
64.9586
66.0439
65.2527
62.9694
60.1693
58.0167
57.397
58.6013
61.2725
64.5771
67.6127
69.7854
70.9114
71.1122
70.5492
69.2949
67.4096
64.9953
62.3617
60.0645
58.6579
58.4386
59.2135
60.3496
61.0196
60.5376
58.6732
55.791
52.651
50.1122
48.8275
49.0754
50.7547
53.4668
56.7071
59.9247
62.5389
64.0376
64.0463
62.4545
59.5157
55.7785
51.9736
48.6988
46.2216
44.4537
43.1773
42.2906
41.9357
42.5214
44.5426
48.2524
53.3972
59.2515
64.8299
69.2199
71.9343
73.0455
73.0537
72.5797
71.9245
70.8009
68.1497
62.3658
51.8926
35.9174
15.0409
-8.36932
-30.2184
-45.4425
-49.2709
-38.5229
-12.7683
25.2668
70.1384
114.807
152.293
177.255
187.028
181.885
164.543
139.193
110.306
81.6772
55.9317
34.4473
17.6333
5.36688
-2.67612
-6.86816
-7.54139
-5.17877
-0.520614
5.27177
10.7815
14.6756
16.019
14.5862
10.906
6.02337
1.0009
-3.59345
-7.81006
-12.262
-17.6248
-24.1305
-31.3094
-38.0921
-43.2102
-45.821
-45.9355
-44.4623
-42.7943
-42.2593
-43.5847
-46.6676
-50.7252
-54.7675
-58.1287
-60.7513
-63.2359
-66.5332
-71.4181
-78.0073
-85.6152
-92.8565
-98.1522
-100.373
-99.3621
-96.0981
-92.4166
-90.3027
-91.0961
-94.8631
-100.47
-106.06
-109.874
-111.054
-109.945
-107.776
-105.904
-105.041
-104.819
-104.007
-101.191
-95.5728
-87.3872
-77.8116
-68.5063
-60.903
-55.7128
-52.9083
-52.006
-52.3551
-53.3984
-54.7405
-55.9852
-56.7142
-56.4853
-55.0459
-52.4766
-49.2646
-46.175
-44.0743
-43.6655
-45.339
-49.1336
-54.7134
-61.4159
-68.2942
-74.2013
-77.9609
-78.6557
-75.9001
-69.999
-61.9438
-53.1953
-45.3625
-39.86
-37.6557
-39.0846
-43.7952
-50.758
-58.4297
-65.0294
-68.9332
-69.1144
-65.4972
-59.0372
-51.4482
-44.7105
-40.3897
-39.1922
-40.7531
-43.8006
-46.6415
-47.8475
-46.8048
-43.942
-40.557
-38.3026
-38.4434
-41.1861
-45.5073
-49.4228
-50.6799
-47.7168
-40.4847
-30.6724
-21.1674
-14.9951
-14.2182
-19.1251
-28.079
-38.1774
-46.4022
-50.6256
-50.2691
-46.1929
-40.0346
-33.4777
-27.6105
-22.7752
-18.9039
-15.9105
-13.9678
-13.556
-15.1165
-18.5801
-23.1701
-27.6191
-30.6549
-31.5123
-30.2171
-27.5546
-24.4852
-21.5588
-18.6629
-15.1884
-10.3268
-3.61451
4.5835
13.0207
19.8282
22.9211
20.5354
11.6232
-3.60182
-23.3378
-44.0737
-60.9536
-68.7537
-63.1996
-42.4908
-8.33156
34.0777
77.1541
112.959
135.515
142.469
135.537
119.589
100.696
84.1253
72.968
67.7364
66.9642
68.2769
69.4755
69.0797
66.4894
61.7593
55.2925
47.8752
40.6563
35.1152
32.8658
35.1173
42.1587
52.9778
65.3354
76.4364
83.9226
86.6525
85.0275
80.7154
75.837
71.9715
69.5601
67.9595
65.9509
62.6107
57.9436
52.9592
49.347
48.7512
51.9958
58.5699
66.7844
74.2883
78.8377
79.092
75.0715
67.9111
59.3262
50.751
42.9196
35.8149
29.1241
22.7106
17.0414
12.9686
11.2977
12.211
14.9433
18.1142
20.4027
21.1937
20.8549
20.5488
21.5547
24.5237
29.2438
34.7561
39.8882
43.9006
46.643
48.6073
50.6629
53.5462
57.4429
62.0123
66.4801
69.7182
70.514
68.0047
62.155
54.0947
46.0766
40.9409
41.1617
47.8664
60.1368
75.1015
88.7937
97.5505
99.2686
94.0001
83.768
71.7337
60.9867
53.4343
49.403
47.8874
47.3028
46.322
44.3741
41.6448
38.899
36.9481
36.0442
35.7266
35.2697
34.1539
32.4178
30.8427
30.7256
33.2804
38.8647
46.6717
54.893
61.3429
64.2453
62.9221
57.9872
50.9434
43.6144
37.4944
33.3158
31.0982
30.3386
30.4349
30.9484
31.7732
32.9036
34.2947
35.5685
35.7183
33.3173
27.1334
16.7491
3.20929
-10.8566
-21.8778
-26.5445
-23.0699
-11.9382
4.12321
21.0531
34.7571
42.4015
43.0778
37.7655
28.6578
18.41
9.37458
3.04862
-0.068972
-0.362627
1.06989
2.87754
3.84231
3.42368
1.88693
0.0481839
-1.31533
-1.89888
-2.13425
-3.15779
-6.19175
-11.9472
-20.4909
-31.3769
-43.7965
-56.7297
-68.8885
-78.4074
-82.8014
-79.652
-67.6151
-47.4259
-22.1662
3.39996
24.4721
37.9902
43.8038
44.4581
43.7858
45.0574
49.3698
55.3463
59.914
59.8178
53.0647
39.6191
21.1582
0.206267
-20.6817
-39.3238
-53.9386
-63.0481
-65.7164
-62.014
-53.5627
-43.5201
-35.9069
-34.3231
-40.3377
-52.4752
-66.5147
-76.9132
-78.927
-70.4704
-53.1969
-31.9208
-12.808
-1.00535
1.1778
-5.11589
-16.0841
-27.2431
-35.2972
-39.3678
-40.8715
-42.1873
-44.9367
-48.9821
-52.5134
-53.0978
-49.3381
-41.9837
-33.9715
-29.1547
-30.4192
-38.1455
-49.8634
-61.1787
-67.6675
-66.7919
-58.8922
-46.9362
-35.1024
-27.0107
-24.4013
-26.8451
-32.2769
-38.0555
-42.0205
-43.0239
-40.9053
-36.0743
-29.0114
-19.9968
-9.19645
3.05753
16.0748
28.7264
39.4742
46.7513
49.5138
47.6318
42.0681
34.8099
28.3994
25.1699
26.5622
32.6738
42.2544
53.1237
62.9489
70.0424
73.7561
74.448
73.1254
70.8159
68.1636
65.3253
62.1843
58.7013
55.1757
52.2814
50.8362
51.4606
54.2763
58.7565
63.8492
68.3301
71.1273
71.6122
69.7877
66.3006
62.279
59.0182
57.6154
58.6814
62.082
66.9743
72.0412
75.8853
77.533
76.8533
74.6492
72.3231
71.3016
72.4897
75.8302
80.2717
84.1184
85.6385
83.7418
78.3245
70.3384
61.4414
53.5447
48.2076
46.2333
47.5073
51.1059
55.6174
59.5981
62.0349
62.5829
61.6064
59.9679
58.5757
58.0555
58.584
59.9685
61.8043
63.7031
65.4548
66.9022
67.6909
67.2906
65.1569
61.0609
55.49
49.7948
45.8457
45.2896
48.7094
55.0293
61.5557
64.7629
61.6196
50.838
33.6755
13.8844
-3.24216
-12.4297
-10.0077
5.09166
31.1259
64.093
98.7703
129.918
153.281
166.243
168.015
159.5
142.974
121.615
98.8304
77.6442
60.3256
48.0464
40.7675
37.4713
36.5342
36.1551
34.7593
31.3925
26.0031
19.4584
13.2993
9.25009
8.66468
12.0136
18.613
26.7225
33.959
37.9711
37.2007
31.3551
21.4709
9.61337
-1.68772
-10.1693
-14.4818
-14.5478
-11.4935
-7.25588
-3.90443
-3.02106
-5.15534
-9.70612
-15.2652
-20.3141
-23.8628
-25.8687
-27.18
-29.0229
-32.2838
-36.97
-42.127
-46.2954
-48.2396
-47.594
-45.0662
-42.1584
-40.4986
-41.1295
-44.1076
-48.5675
-53.2316
-56.9955
-59.3332
-60.3818
-60.6647
-60.6702
-60.517
-59.8515
-57.9888
-54.1859
-48.0176
-39.5649
-29.4521
-18.7957
-8.95081
-1.17758
3.64659
5.27114
4.23085
1.70484
-0.789226
-1.89201
-0.911412
1.85269
5.11679
7.07205
6.07577
1.36249
-6.52486
-15.8143
-24.0586
-29.068
-29.6767
-26.1825
-20.1913
-13.97
-9.61832
-8.39632
-10.4632
-15.0439
-20.9107
-26.952
-32.4492
-37.0861
-40.7506
-43.3006
-44.48
-44.0557
-42.0575
-38.9182
-35.4646
-32.7177
-31.4786
-32.0439
-34.191
-37.406
-41.1804
-45.2807
-49.7854
-54.8727
-60.5349
-66.3011
-71.2607
-74.3846
-74.9698
-72.9282
-68.802
-63.5748
-58.2727
-53.5953
-49.847
-47.0822
-45.3403
-44.8594
-46.1335
-49.7
-55.7945
-64.1669
-73.9747
-83.9823
-92.8417
-99.4308
-103.119
-103.742
-101.568
-97.265
-91.7138
-85.8371
-80.4333
-76.0218
-72.7864
-70.6852
-69.6832
-69.9888
-72.1249
-76.6511
-83.6544
-92.2448
-100.46
-105.773
-106.022
-100.575
-91
-80.9082
-74.8914
-76.8646
-88.4305
-107.916
-130.585
-149.893
-159.449
-154.922
-135.338
-103.33
-64.3623
-25.2623
7.4555
29.0044
37.1822
32.4954
17.6858
-3.18628
-25.792
-46.4967
-62.9926
-74.5628
-81.8168
-86.1356
-89.0412
-91.6957
-94.6677
-97.9694
-101.324
-104.476
-107.342
-109.913
-112.109
-113.603
-113.812
-112.013
-107.734
-101.114
-93.0305
-84.9957
-78.7139
-75.4933
-75.8307
-79.2877
-84.7515
-90.8876
-96.6431
-101.498
-105.378
-108.363
-110.48
-111.512
-111.006
-108.507
-103.911
-97.8289
-91.639
-87.308
-86.8553
-91.5987
-101.491
-114.753
-128.178
-138.089
-141.565
-137.642
-127.647
-114.766
-102.831
-94.7753
-91.5151
-91.8183
-93.1035
-92.9906
-90.715
-87.5516
-86.0175
-88.3046
-94.6263
-102.481
-107.428
-105.013
-92.7611
-71.4114
-44.9282
-18.8194
2.16405
15.8401
23.0216
26.7014
30.2511
35.6815
42.9598
50.2909
55.3854
56.779
54.4298
49.5544
43.7612
38.324
33.952
31.0749
30.367
32.8963
39.6701
50.7834
64.9732
79.6211
91.5369
98.2244
98.8535
94.4958
87.5849
80.905
76.5381
75.2893
76.881
80.4001
84.7922
88.9934
92.0805
93.3681
92.6139
90.2376
87.3302
85.3294
85.1696
86.5894
88.0071
87.0878
82.0353
72.8376
61.6151
52.0566
47.8694
51.2342
61.9112
77.2974
93.4314
106.507
114.087
115.376
111.158
103.432
94.6774
87.3805
83.3146
82.8008
84.0462
83.3298
76.0152
58.4404
30.1559
-4.9576
-39.3226
-63.9186
-71.4935
-59.3446
-30.1415
9.30494
50.4966
86.2864
112.634
128.753
135.913
135.955
130.084
118.81
102.755
83.5384
64.0419
47.5503
36.1971
29.4993
24.0627
14.6217
-3.59695
-32.2148
-68.1214
-103.362
-127.134
-129.273
-103.946
-51.9405
18.9142
95.5136
162.974
208.74
225.659
213.479
178.147
129.311
77.591
32.0978
-1.1758
-19.8055
-24.6267
-19.1597
-8.81375
0.314876
2.79642
-4.4207
-20.8752
-42.4245
-62.5299
-74.5768
-74.4681
-62.2474
-41.8956
-19.7547
-1.85338
8.31437
10.462
6.8641
0.517525
-6.49475
-13.5365
-20.8703
-28.3049
-34.5191
-37.3012
-35.0322
-28.6059
-21.9377
-20.6263
-29.3514
-49.0179
-75.2887
-99.6938
-112.985
-109.212
-88.4196
-56.7542
-24.0924
0.180902
10.6744
7.4952
-4.8142
-20.1463
-33.7752
-44.2223
-52.9381
-62.3289
-73.419
-84.5185
-91.6804
-90.4381
-78.0415
-55.2164
-26.2234
2.6462
25.4551
38.651
41.86
37.517
29.4615
21.0803
14.1047
8.53308
3.47855
-1.6472
-6.30631
-8.79544
-7.09378
0.0122189
12.0507
26.7332
40.7605
51.1046
55.9631
55.4179
51.0555
45.1511
39.8116
36.3048
34.8716
35.0721
36.3344
38.2715
40.6528
43.2438
45.5728
46.7941
45.821
41.7973
34.5863
25.1012
15.2414
7.43762
3.9183
5.96637
13.4043
24.6487
37.1875
48.3856
56.3707
60.3404
60.4521
57.4098
51.9759
44.7357
36.3044
27.6871
20.5393
16.904
18.3319
25.0183
35.3853
46.4273
54.7713
58.0322
55.747
49.453
41.7629
35.0285
30.3902
27.5732
25.4824
23.2195
20.7776
19.1326
19.7339
23.5304
30.3395
38.8173
46.8741
52.5083
54.5619
53.0271
49.01
44.2313
40.4016
38.6624
39.3131
41.8272
45.068
47.613
48.0724
45.3223
38.7622
28.3421
14.6854
-0.965004
-16.5558
-29.4138
-36.4651
-34.7189
-22.0017
2.109
35.6598
74.3067
112.069
142.806
161.659
166.246
157.123
137.171
110.5
81.3795
53.494
29.615
11.6081
0.501394
-3.5765
-1.54191
4.64988
12.3498
18.8139
21.9593
20.9504
16.384
9.78524
3.00622
-2.64156
-6.77065
-9.9912
-13.3774
-17.8671
-23.776
-30.6211
-37.4019
-42.9689
-46.499
-47.7432
-47.077
-45.2895
-43.2263
-41.6254
-40.9987
-41.6492
-43.6661
-47.0764
-51.8505
-57.9109
-65.2069
-73.6913
-83.2502
-93.5584
-103.976
-113.447
-120.617
-124.183
-123.428
-118.627
-111.261
-103.628
-98.232
-96.9531
-100.407
-107.77
-117.155
-126.434
-133.976
-139.117
-142.118
-143.737
-144.621
-144.807
-143.649
-140.073
-133.143
-122.498
-108.712
-93.2686
-78.1977
-65.5831
-57.0055
-53.1732
-53.8728
-58.2128
-64.9802
-73.0435
-81.5214
-89.775
-97.2279
-103.168
-106.72
-107.227
-104.573
-99.3455
-92.7824
-86.4547
-81.777
-79.5453
-79.758
-81.8071
-84.8291
-88.0036
-90.708
-92.6566
-93.8593
-94.6497
-95.6449
-97.7203
-101.729
-108.065
-116.199
-124.543
-130.769
-132.602
-128.768
-119.587
-106.962
-93.83
-83.1398
-76.9513
-75.969
-79.6534
-86.7079
-95.5718
-104.742
-112.854
-118.632
-120.937
-119.008
-112.824
-103.509
-93.245
-84.6858
-80.1216
-80.6373
-85.651
-93.1762
-100.661
-106.098
-108.813
-109.573
-109.983
-111.473
-114.445
-117.939
-120.027
-118.717
-112.952
-103.29
-91.776
-81.2815
-74.4631
-72.8311
