num, time, PAT, eSBP, eDBP, tSBP, tDBP
1,2732,208,0,0,0,0
2,3588,205,0,0,0,0
3,4483,204,0,0,0,0
4,5378,194,0,0,0,0
5,6281,162,0,0,0,0
6,7163,158,0,0,0,0
7,7976,160,0,0,0,0
8,8781,162,0,0,0,0
9,9605,170,0,0,0,0
10,10482,206,0,0,0,0
11,11392,210,0,0,0,0
12,12287,209,0,0,0,0
13,13147,208,0,0,0,0
14,14014,209,0,0,0,0
15,14930,206,0,0,0,0
16,15884,205,0,0,0,0
17,16899,204,0,0,0,0
18,17892,205,0,0,0,0
19,18796,207,0,0,0,0
20,19702,213,0,0,0,0
21,20597,213,0,0,0,0
22,21470,222,0,0,0,0
23,22315,225,0,0,0,0
24,23139,235,0,0,0,0
25,23929,208,0,0,0,0
26,24687,209,0,0,0,0
27,25437,208,0,0,0,0
28,26180,201,0,0,0,0
29,26957,177,0,0,0,0
30,27797,205,0,0,0,0
31,28736,204,0,0,0,0
32,29678,196,0,0,0,0
33,30601,198,0,0,0,0
34,31459,192,0,0,0,0
35,32313,185,0,0,0,0
36,33164,186,0,0,0,0
37,34041,185,0,0,0,0
38,34945,182,0,0,0,0
39,35856,193,0,0,0,0
40,36772,201,0,0,0,0
41,37661,201,0,0,0,0
42,38537,203,0,0,0,0
43,39434,250,0,0,0,0
44,40352,253,0,0,0,0
45,41302,317,0,0,0,0
46,42243,313,0,0,0,0
47,43108,311,0,0,0,0
48,43966,267,0,0,0,0
49,44843,265,0,0,0,0
50,45739,203,0,0,0,0
51,46654,207,0,0,0,0
52,47509,209,0,0,0,0
53,48324,209,0,0,0,0
54,49152,210,0,0,0,0
55,50002,208,0,0,0,0
56,50902,207,0,0,0,0
57,51841,206,0,0,0,0
58,52791,206,0,0,0,0
59,53747,208,0,0,0,0
60,54668,210,0,0,0,0
61,55623,213,0,0,0,0
62,56571,214,0,0,0,0
63,57530,213,0,0,0,0
64,58483,214,0,0,0,0
65,59378,213,0,0,0,0
66,60264,212,0,0,0,0
67,61158,212,0,0,0,0
68,62071,244,0,0,0,0
69,62970,251,0,0,0,0
70,63810,253,0,0,0,0
71,64323,259,0,0,0,0
72,64644,268,0,0,0,0
73,65410,235,0,0,0,0
74,66236,199,0,0,0,0
75,66898,205,0,0,0,0
76,67660,228,0,0,0,0
77,68424,217,0,0,0,0
78,68949,183,0,0,0,0
79,69270,188,0,0,0,0
80,69941,179,0,0,0,0
81,70682,155,0,0,0,0
82,71434,154,0,0,0,0
83,72192,184,0,0,0,0
84,72960,201,0,0,0,0
85,73557,229,0,0,0,0
86,74242,265,0,0,0,0
87,75169,263,0,0,0,0
88,75918,262,0,0,0,0
89,76670,261,0,0,0,0
90,77469,233,0,0,0,0
91,78346,195,0,0,0,0
92,79320,194,0,0,0,0
93,80312,194,0,0,0,0
94,81297,154,0,0,0,0
95,82239,105,0,0,0,0
96,83174,74,0,0,0,0
97,84076,79,0,0,0,0
98,84933,96,0,0,0,0
99,85758,132,0,0,0,0
100,86598,182,0,0,0,0
101,87446,186,0,0,0,0
102,88315,187,0,0,0,0
103,89242,197,0,0,0,0
104,90230,202,0,0,0,0
105,91223,201,0,0,0,0
106,92172,201,0,0,0,0
107,93149,201,0,0,0,0
108,94148,202,0,0,0,0
109,95122,214,0,0,0,0
110,95634,251,0,0,0,0
111,96122,283,0,0,0,0
112,96982,286,0,0,0,0
113,97579,296,0,0,0,0
114,97953,264,0,0,0,0
115,98747,204,0,0,0,0
116,99603,173,0,0,0,0
117,100416,170,0,0,0,0
118,101267,160,0,0,0,0
119,102171,180,0,0,0,0
120,103112,205,0,0,0,0
121,104017,204,0,0,0,0
122,104914,204,0,0,0,0
123,105845,204,0,0,0,0
124,106791,205,0,0,0,0
125,107700,204,0,0,0,0
126,108610,205,0,0,0,0
127,108977,197,0,0,0,0
128,109557,196,0,0,0,0
129,110471,198,0,0,0,0
130,111319,210,0,0,0,0
131,112185,243,0,0,0,0
132,113039,242,0,0,0,0
133,113855,240,0,0,0,0
134,114665,276,0,0,0,0
135,115433,299,0,0,0,0
136,116180,243,0,0,0,0
137,116472,264,0,0,0,0
138,116823,335,0,0,0,0
139,117409,358,0,0,0,0
140,118408,312,0,0,0,0
141,119170,338,0,0,0,0
142,119963,309,0,0,0,0
143,120765,255,0,0,0,0
144,121573,200,0,0,0,0
145,122413,199,0,0,0,0
146,123281,200,0,0,0,0
147,124164,201,0,0,0,0
148,125068,202,0,0,0,0
149,125985,198,0,0,0,0
150,126898,198,0,0,0,0
151,127793,191,0,0,0,0
152,128636,195,0,0,0,0
153,129452,181,0,0,0,0
154,130283,194,0,0,0,0
155,131138,185,0,0,0,0
156,132037,192,0,0,0,0
157,132961,190,0,0,0,0
158,133870,204,0,0,0,0
159,134814,195,0,0,0,0
160,135767,206,0,0,0,0
161,136719,207,0,0,0,0
162,137626,208,0,0,0,0
163,138542,208,0,0,0,0
164,139443,207,0,0,0,0
165,140311,190,0,0,0,0
166,141169,189,0,0,0,0
167,142041,191,0,0,0,0
168,142917,190,0,0,0,0
169,143751,190,0,0,0,0
170,144587,207,0,0,0,0
171,145449,206,0,0,0,0
172,146369,203,0,0,0,0
173,147308,204,0,0,0,0
174,148216,207,0,0,0,0
175,149086,208,0,0,0,0
176,149977,209,0,0,0,0
177,150863,211,0,0,0,0
178,151753,210,0,0,0,0
179,152605,208,0,0,0,0
180,153488,208,0,0,0,0
181,154336,196,0,0,0,0
182,155099,156,0,0,0,0
183,156093,156,0,0,0,0
184,156980,128,0,0,0,0
185,157873,138,0,0,0,0
186,158585,189,0,0,0,0
187,159596,212,0,0,0,0
188,160405,228,0,0,0,0
189,161134,296,0,0,0,0
190,161953,303,0,0,0,0
191,162683,260,0,0,0,0
192,163425,281,0,0,0,0
193,164171,262,0,0,0,0
194,164875,228,0,0,0,0
195,165424,228,0,0,0,0
196,166055,228,0,0,0,0
197,167865,235,0,0,0,0
198,168403,314,0,0,0,0
199,169343,266,0,0,0,0
200,170100,201,0,0,0,0
201,170853,197,0,0,0,0
202,171592,203,0,0,0,0
203,172348,148,0,0,0,0
204,173133,164,0,0,0,0
205,173973,205,0,0,0,0
206,174852,203,0,0,0,0
207,175754,202,0,0,0,0
208,176620,213,0,0,0,0
209,177459,213,0,0,0,0
210,178275,210,0,0,0,0
211,179088,213,0,0,0,0
212,179891,204,0,0,0,0
213,180689,202,0,0,0,0
214,181461,203,0,0,0,0
215,181915,204,0,0,0,0
216,182256,202,0,0,0,0
217,183054,210,0,0,0,0
218,183854,209,0,0,0,0
219,184635,214,0,0,0,0
220,185416,213,0,0,0,0
221,186235,217,0,0,0,0
222,187066,219,0,0,0,0
223,187889,220,0,0,0,0
224,188743,218,0,0,0,0
225,189649,220,0,0,0,0
226,190596,221,0,0,0,0
227,191535,221,0,0,0,0
228,192453,222,0,0,0,0
229,193386,222,0,0,0,0
230,194328,232,0,0,0,0
231,195285,232,0,0,0,0
232,196216,230,0,0,0,0
233,197095,227,0,0,0,0
234,197976,224,0,0,0,0
235,198860,212,0,0,0,0
236,199711,209,0,0,0,0
237,200493,210,0,0,0,0
238,201234,208,0,0,0,0
239,202039,212,0,0,0,0
240,202926,210,0,0,0,0
241,203896,210,0,0,0,0
242,204865,210,0,0,0,0
243,205811,195,0,0,0,0
244,206746,190,0,0,0,0
245,207648,194,0,0,0,0
246,208514,194,0,0,0,0
247,209348,194,0,0,0,0
248,210134,210,0,0,0,0
249,210924,210,0,0,0,0
250,211736,209,0,0,0,0
251,212603,206,0,0,0,0
252,213517,204,0,0,0,0
253,214450,204,0,0,0,0
254,215376,180,0,0,0,0
255,216249,178,0,0,0,0
256,217130,178,0,0,0,0
257,218010,179,0,0,0,0
258,218885,179,0,0,0,0
259,219784,203,0,0,0,0
260,220690,205,0,0,0,0
261,221557,207,0,0,0,0
262,222445,207,0,0,0,0
263,223294,207,0,0,0,0
264,224167,207,0,0,0,0
265,225078,207,0,0,0,0
266,225995,207,0,0,0,0
267,226869,207,0,0,0,0
268,227769,207,0,0,0,0
269,228685,208,0,0,0,0
270,229568,209,0,0,0,0
271,230414,196,0,0,0,0
272,231202,197,0,0,0,0
273,231985,190,0,0,0,0
274,232664,188,0,0,0,0
275,233386,188,0,0,0,0
276,234113,200,0,0,0,0
277,234864,199,0,0,0,0
278,235668,206,0,0,0,0
279,236510,207,0,0,0,0
280,237367,207,0,0,0,0
281,238212,208,0,0,0,0
282,239042,210,0,0,0,0
283,239838,210,0,0,0,0
284,240635,210,0,0,0,0
285,241448,209,0,0,0,0
286,242259,209,0,0,0,0
287,243128,208,0,0,0,0
288,244070,208,0,0,0,0
289,245004,208,0,0,0,0
290,245969,209,0,0,0,0
291,246945,209,0,0,0,0
292,247924,210,0,0,0,0
293,248901,211,0,0,0,0
294,249793,212,0,0,0,0
295,250670,212,0,0,0,0
296,251536,213,0,0,0,0
297,252404,213,0,0,0,0
298,253272,213,0,0,0,0
299,254132,214,0,0,0,0
300,254999,214,0,0,0,0
301,255859,213,0,0,0,0
302,256727,214,0,0,0,0
303,257581,212,0,0,0,0
304,258424,212,0,0,0,0
305,259269,211,0,0,0,0
306,260111,208,0,0,0,0
307,260943,205,0,0,0,0
308,261714,205,0,0,0,0
309,262508,203,0,0,0,0
310,263350,201,0,0,0,0
311,264227,203,0,0,0,0
312,265087,202,0,0,0,0
313,265944,201,0,0,0,0
314,266810,203,0,0,0,0
315,267683,203,0,0,0,0
316,268563,203,0,0,0,0
317,269444,203,0,0,0,0
318,270319,204,0,0,0,0
319,271162,204,0,0,0,0
320,272019,203,0,0,0,0
321,272900,202,0,0,0,0
322,273823,200,0,0,0,0
323,274741,200,0,0,0,0
324,275642,201,0,0,0,0
325,276541,200,0,0,0,0
326,277443,195,0,0,0,0
327,278322,202,0,0,0,0
328,279153,201,0,0,0,0
329,280001,198,0,0,0,0
330,280867,162,0,0,0,0
331,281704,176,0,0,0,0
332,282502,168,0,0,0,0
333,283291,240,0,0,0,0
334,284091,244,0,0,0,0
335,284903,270,0,0,0,0
336,285700,264,0,0,0,0
337,286526,335,0,0,0,0
338,287301,256,0,0,0,0
339,288155,256,0,0,0,0
340,288945,269,0,0,0,0
341,289746,270,0,0,0,0
342,290560,203,0,0,0,0
343,291448,212,0,0,0,0
344,292388,213,0,0,0,0
345,293329,214,0,0,0,0
346,294277,213,0,0,0,0
347,295214,213,0,0,0,0
348,296096,215,0,0,0,0
349,296978,215,0,0,0,0
350,297863,215,0,0,0,0
351,298766,216,0,0,0,0
352,299691,216,0,0,0,0
353,300626,215,0,0,0,0
354,301569,212,0,0,0,0
355,302517,211,0,0,0,0
356,303482,210,0,0,0,0
357,304451,212,0,0,0,0
358,305396,213,0,0,0,0
359,306317,212,0,0,0,0
360,307220,212,0,0,0,0
361,308112,212,0,0,0,0
362,308996,212,0,0,0,0
363,309873,210,0,0,0,0
364,310804,210,0,0,0,0
365,311752,211,0,0,0,0
366,312696,213,0,0,0,0
367,313631,214,0,0,0,0
368,314526,209,0,0,0,0
369,315400,196,0,0,0,0
370,316293,196,0,0,0,0
371,317180,196,0,0,0,0
372,318049,194,0,0,0,0
373,318940,199,0,0,0,0
374,319890,211,0,0,0,0
375,320854,212,0,0,0,0
376,321822,212,0,0,0,0
377,322757,215,0,0,0,0
378,323642,216,0,0,0,0
379,324518,218,0,0,0,0
380,325415,219,0,0,0,0
381,326319,220,0,0,0,0
382,327211,219,0,0,0,0
383,328085,221,0,0,0,0
384,328951,221,0,0,0,0
385,329792,221,0,0,0,0
386,330596,213,0,0,0,0
387,331393,212,0,0,0,0
388,332233,209,0,0,0,0
389,333142,208,0,0,0,0
390,334032,207,0,0,0,0
391,334928,212,0,0,0,0
392,335824,212,0,0,0,0
393,336704,212,0,0,0,0
394,337537,212,0,0,0,0
395,338355,213,0,0,0,0
396,339177,214,0,0,0,0
397,340022,215,0,0,0,0
398,340891,216,0,0,0,0
399,341748,217,0,0,0,0
400,342603,217,0,0,0,0
401,343451,218,0,0,0,0
402,344307,218,0,0,0,0
403,345161,217,0,0,0,0
404,346016,218,0,0,0,0
405,346887,216,0,0,0,0
406,347750,216,0,0,0,0
407,348636,216,0,0,0,0
408,349587,215,0,0,0,0
409,350546,215,0,0,0,0
410,351484,216,0,0,0,0
411,352395,201,0,0,0,0
412,353295,202,0,0,0,0
413,354178,203,0,0,0,0
414,355018,202,0,0,0,0
415,355830,201,0,0,0,0
416,356671,215,0,0,0,0
417,357556,214,0,0,0,0
418,358490,213,0,0,0,0
419,359378,214,0,0,0,0
420,360275,213,0,0,0,0
421,361191,212,0,0,0,0
422,362138,212,0,0,0,0
423,363050,214,0,0,0,0
424,363913,214,0,0,0,0
425,364768,215,0,0,0,0
426,365639,215,0,0,0,0
427,366529,214,0,0,0,0
428,367436,213,0,0,0,0
429,368303,212,0,0,0,0
430,369184,212,0,0,0,0
431,370104,211,0,0,0,0
432,371026,211,0,0,0,0
433,371939,210,0,0,0,0
434,372872,210,0,0,0,0
435,373824,210,0,0,0,0
436,374775,209,0,0,0,0
437,375713,211,0,0,0,0
438,376577,197,0,0,0,0
439,377445,199,0,0,0,0
440,378292,199,0,0,0,0
441,379165,199,0,0,0,0
442,380107,197,0,0,0,0
443,381090,209,0,0,0,0
444,382053,207,0,0,0,0
445,382985,207,0,0,0,0
446,383847,207,0,0,0,0
447,384698,207,0,0,0,0
448,385545,208,0,0,0,0
449,386400,208,0,0,0,0
450,387258,208,0,0,0,0
451,388121,211,0,0,0,0
452,388989,213,0,0,0,0
453,389841,212,0,0,0,0
454,390691,213,0,0,0,0
455,391518,213,0,0,0,0
456,392383,211,0,0,0,0
457,393282,210,0,0,0,0
458,394216,211,0,0,0,0
459,395114,210,0,0,0,0
460,395995,209,0,0,0,0
461,396921,208,0,0,0,0
462,397870,209,0,0,0,0
463,398774,209,0,0,0,0
464,399703,209,0,0,0,0
465,400642,209,0,0,0,0
466,401603,210,0,0,0,0
467,402558,209,0,0,0,0
468,403505,209,0,0,0,0
469,404423,209,0,0,0,0
470,405320,216,0,0,0,0
471,406143,217,0,0,0,0
472,406943,225,0,0,0,0
473,407468,226,0,0,0,0
474,409244,202,0,0,0,0
475,409897,192,0,0,0,0
476,410638,191,0,0,0,0
477,411182,231,0,0,0,0
478,412128,206,0,0,0,0
479,412853,225,0,0,0,0
480,413578,221,0,0,0,0
481,414301,213,0,0,0,0
482,415027,170,0,0,0,0
483,415753,193,0,0,0,0
484,416473,187,0,0,0,0
485,417190,193,0,0,0,0
486,417911,200,0,0,0,0
487,418643,191,0,0,0,0
488,419396,190,0,0,0,0
489,420148,193,0,0,0,0
490,420923,180,0,0,0,0
491,421721,179,0,0,0,0
492,422569,181,0,0,0,0
493,423407,188,0,0,0,0
494,424385,202,0,0,0,0
495,425300,215,0,0,0,0
496,426236,216,0,0,0,0
497,427150,217,0,0,0,0
498,428007,211,0,0,0,0
499,428802,200,0,0,0,0
500,429581,199,0,0,0,0
501,430336,197,0,0,0,0
502,431115,195,0,0,0,0
503,431935,195,0,0,0,0
504,432783,194,0,0,0,0
505,433644,192,0,0,0,0
506,434492,193,0,0,0,0
507,435304,194,0,0,0,0
508,435649,215,0,0,0,0
509,436083,269,0,0,0,0
510,436865,270,0,0,0,0
511,437666,266,0,0,0,0
512,438046,275,0,0,0,0
513,438355,288,0,0,0,0
514,439405,235,0,0,0,0
515,440304,240,0,0,0,0
516,441187,246,0,0,0,0
517,442072,307,0,0,0,0
518,442989,293,0,0,0,0
519,443809,294,0,0,0,0
520,444670,272,0,0,0,0
521,445519,270,0,0,0,0
522,446340,181,0,0,0,0
523,447149,179,0,0,0,0
524,447985,178,0,0,0,0
525,448843,201,0,0,0,0
526,449723,161,0,0,0,0
527,450575,157,0,0,0,0
528,451427,153,0,0,0,0
529,452294,106,0,0,0,0
530,453147,72,0,0,0,0
531,453984,94,0,0,0,0
532,454803,111,0,0,0,0
533,455593,132,0,0,0,0
534,456403,183,0,0,0,0
535,457252,212,0,0,0,0
536,458144,216,0,0,0,0
537,459037,217,0,0,0,0
538,459951,222,0,0,0,0
539,460847,222,0,0,0,0
540,461751,216,0,0,0,0
541,462643,231,0,0,0,0
542,463570,273,0,0,0,0
543,464474,286,0,0,0,0
544,465373,285,0,0,0,0
545,466255,291,0,0,0,0
546,467079,273,0,0,0,0
547,467889,221,0,0,0,0
548,468704,217,0,0,0,0
549,469530,215,0,0,0,0
550,470366,215,0,0,0,0
551,471213,217,0,0,0,0
552,472026,205,0,0,0,0
553,472818,219,0,0,0,0
554,473310,222,0,0,0,0
555,473602,296,0,0,0,0
556,474122,342,0,0,0,0
557,474931,386,0,0,0,0
558,475990,378,0,0,0,0
559,476702,378,0,0,0,0
560,477476,289,0,0,0,0
561,478251,193,0,0,0,0
562,479016,174,0,0,0,0
563,479805,166,0,0,0,0
564,480630,177,0,0,0,0
565,481498,195,0,0,0,0
566,482348,227,0,0,0,0
567,483201,220,0,0,0,0
568,484083,222,0,0,0,0
569,484991,221,0,0,0,0
570,485880,215,0,0,0,0
571,486754,226,0,0,0,0
572,487646,221,0,0,0,0
573,488546,179,0,0,0,0
574,489457,179,0,0,0,0
575,490342,171,0,0,0,0
576,491213,112,0,0,0,0
577,492114,116,0,0,0,0
578,493019,167,0,0,0,0
579,493903,164,0,0,0,0
580,494756,172,0,0,0,0
581,495601,211,0,0,0,0
582,496454,211,0,0,0,0
583,497328,211,0,0,0,0
584,498189,211,0,0,0,0
585,499081,209,0,0,0,0
586,500017,208,0,0,0,0
587,500943,211,0,0,0,0
588,501849,187,0,0,0,0
589,502723,182,0,0,0,0
590,503599,187,0,0,0,0
591,504480,223,0,0,0,0
592,505348,180,0,0,0,0
593,506190,193,0,0,0,0
594,507017,202,0,0,0,0
595,507891,200,0,0,0,0
596,508789,164,0,0,0,0
597,509676,204,0,0,0,0
598,510547,218,0,0,0,0
599,511421,216,0,0,0,0
600,512281,219,0,0,0,0
601,513087,221,0,0,0,0
602,513890,221,0,0,0,0
603,514703,226,0,0,0,0
604,515525,213,0,0,0,0
605,516330,204,0,0,0,0
606,517138,205,0,0,0,0
607,517951,217,0,0,0,0
608,518767,209,0,0,0,0
609,519569,221,0,0,0,0
610,520385,226,0,0,0,0
611,521209,220,0,0,0,0
612,522021,201,0,0,0,0
613,522815,205,0,0,0,0
614,523593,202,0,0,0,0
615,524364,238,0,0,0,0
616,525122,244,0,0,0,0
617,525871,256,0,0,0,0
618,526595,247,0,0,0,0
619,527332,245,0,0,0,0
620,527728,200,0,0,0,0
621,528806,261,0,0,0,0
622,529425,280,0,0,0,0
623,530203,313,0,0,0,0
624,530640,329,0,0,0,0
625,533282,358,0,0,0,0
626,533869,325,0,0,0,0
627,534478,324,0,0,0,0
628,534948,276,0,0,0,0
629,535734,269,0,0,0,0
630,536626,258,0,0,0,0
631,537555,219,0,0,0,0
632,538487,192,0,0,0,0
633,538898,224,0,0,0,0
634,539283,251,0,0,0,0
635,540328,250,0,0,0,0
636,541258,254,0,0,0,0
637,542200,261,0,0,0,0
638,543167,247,0,0,0,0
639,544112,218,0,0,0,0
640,545085,223,0,0,0,0
641,546063,221,0,0,0,0
642,547029,225,0,0,0,0
643,548018,226,0,0,0,0
644,549033,232,0,0,0,0
645,550044,233,0,0,0,0
646,551059,230,0,0,0,0
647,552061,227,0,0,0,0
648,553073,222,0,0,0,0
649,554094,218,0,0,0,0
650,555067,198,0,0,0,0
651,556026,182,0,0,0,0
652,557003,199,0,0,0,0
653,557964,185,0,0,0,0
654,558886,199,0,0,0,0
655,559824,224,0,0,0,0
656,560772,239,0,0,0,0
657,561678,229,0,0,0,0
658,562615,256,0,0,0,0
659,563526,258,0,0,0,0
660,564382,247,0,0,0,0
661,565216,266,0,0,0,0
662,566012,265,0,0,0,0
663,566833,252,0,0,0,0
664,567693,240,0,0,0,0
665,568594,234,0,0,0,0
666,569501,234,0,0,0,0
667,570385,204,0,0,0,0
668,571230,207,0,0,0,0
669,572066,208,0,0,0,0
670,572888,209,0,0,0,0
671,573673,179,0,0,0,0
672,574460,228,0,0,0,0
673,575295,306,0,0,0,0
674,576258,313,0,0,0,0
675,577208,301,0,0,0,0
676,578179,288,0,0,0,0
677,579140,283,0,0,0,0
678,580060,247,0,0,0,0
679,580986,229,0,0,0,0
680,581911,241,0,0,0,0
681,582839,256,0,0,0,0
682,583753,263,0,0,0,0
683,584687,221,0,0,0,0
684,585616,160,0,0,0,0
685,586541,127,0,0,0,0
686,587445,58,0,0,0,0
687,588356,75,0,0,0,0
688,589227,98,0,0,0,0
689,590067,148,0,0,0,0
690,590897,163,0,0,0,0
691,591746,157,0,0,0,0
692,592608,169,0,0,0,0
693,593476,164,0,0,0,0
694,594351,155,0,0,0,0
695,595165,170,0,0,0,0
696,595989,211,0,0,0,0
697,596863,219,0,0,0,0
698,597886,226,0,0,0,0
699,598900,226,0,0,0,0
700,599868,225,0,0,0,0
701,600790,230,0,0,0,0
702,601729,228,0,0,0,0
703,602660,223,0,0,0,0
704,603568,226,0,0,0,0
705,604426,231,0,0,0,0
706,605252,232,0,0,0,0
707,606069,302,0,0,0,0
708,606768,342,0,0,0,0
709,607255,379,0,0,0,0
710,608953,410,0,0,0,0
711,609715,404,0,0,0,0
712,610495,318,0,0,0,0
713,611261,282,0,0,0,0
714,611976,239,0,0,0,0
715,612320,239,0,0,0,0
716,612676,202,0,0,0,0
717,613393,275,0,0,0,0
718,614111,327,0,0,0,0
719,614835,316,0,0,0,0
720,615567,295,0,0,0,0
721,616305,290,0,0,0,0
722,617031,224,0,0,0,0
723,617750,159,0,0,0,0
724,618115,183,0,0,0,0
725,618464,180,0,0,0,0
726,619172,217,0,0,0,0
727,619882,243,0,0,0,0
728,620594,237,0,0,0,0
729,621310,214,0,0,0,0
730,622032,219,0,0,0,0
731,622770,216,0,0,0,0
732,623533,216,0,0,0,0
733,624328,217,0,0,0,0
734,625151,215,0,0,0,0
735,625998,211,0,0,0,0
736,626829,210,0,0,0,0
737,627655,214,0,0,0,0
738,628449,214,0,0,0,0
739,629206,215,0,0,0,0
740,629978,217,0,0,0,0
741,630866,218,0,0,0,0
742,631869,180,0,0,0,0
743,632865,169,0,0,0,0
744,633800,152,0,0,0,0
745,634386,121,0,0,0,0
746,634694,179,0,0,0,0
747,636362,206,0,0,0,0
748,636813,220,0,0,0,0
749,637164,233,0,0,0,0
750,639445,305,0,0,0,0
751,640262,204,0,0,0,0
752,641127,210,0,0,0,0
753,642004,210,0,0,0,0
754,642880,215,0,0,0,0
755,643739,215,0,0,0,0
756,644575,217,0,0,0,0
757,645386,220,0,0,0,0
758,646186,218,0,0,0,0
759,646969,211,0,0,0,0
760,647759,210,0,0,0,0
761,648563,203,0,0,0,0
762,649384,201,0,0,0,0
763,650267,200,0,0,0,0
764,651210,208,0,0,0,0
765,652120,207,0,0,0,0
766,653023,211,0,0,0,0
767,653924,211,0,0,0,0
768,654818,215,0,0,0,0
769,655734,216,0,0,0,0
770,656628,220,0,0,0,0
771,657524,221,0,0,0,0
772,658139,197,0,0,0,0
773,658433,194,0,0,0,0
774,659346,194,0,0,0,0
775,660286,192,0,0,0,0
776,661212,200,0,0,0,0
777,662107,221,0,0,0,0
778,662976,213,0,0,0,0
779,663595,242,0,0,0,0
780,664648,248,0,0,0,0
781,665075,277,0,0,0,0
782,666082,313,0,0,0,0
783,666636,345,0,0,0,0
784,667244,383,0,0,0,0
785,668222,390,0,0,0,0
786,668535,358,0,0,0,0
787,669599,354,0,0,0,0
788,670293,274,0,0,0,0
789,670924,193,0,0,0,0
790,671710,175,0,0,0,0
791,672419,163,0,0,0,0
792,673146,163,0,0,0,0
793,673855,228,0,0,0,0
794,674599,230,0,0,0,0
795,675362,228,0,0,0,0
796,676157,197,0,0,0,0
797,676980,198,0,0,0,0
798,677802,200,0,0,0,0
799,678572,202,0,0,0,0
800,679367,201,0,0,0,0
801,680197,215,0,0,0,0
802,681094,218,0,0,0,0
803,682029,219,0,0,0,0
804,682960,212,0,0,0,0
805,683905,213,0,0,0,0
806,684811,217,0,0,0,0
807,685677,217,0,0,0,0
808,686562,220,0,0,0,0
809,687499,220,0,0,0,0
810,688510,220,0,0,0,0
811,689474,216,0,0,0,0
812,690459,216,0,0,0,0
813,691446,213,0,0,0,0
814,692423,212,0,0,0,0
815,693382,211,0,0,0,0
816,694327,210,0,0,0,0
817,695231,210,0,0,0,0
818,696111,207,0,0,0,0
819,697026,205,0,0,0,0
820,697910,204,0,0,0,0
821,698876,204,0,0,0,0
822,699888,203,0,0,0,0
823,700929,204,0,0,0,0
824,701959,207,0,0,0,0
825,702941,206,0,0,0,0
826,703886,206,0,0,0,0
827,704842,207,0,0,0,0
828,705813,206,0,0,0,0
829,706788,208,0,0,0,0
830,707710,209,0,0,0,0
831,708575,209,0,0,0,0
832,709450,208,0,0,0,0
833,710367,210,0,0,0,0
834,711331,208,0,0,0,0
835,712295,190,0,0,0,0
836,713236,188,0,0,0,0
837,714143,189,0,0,0,0
838,715041,188,0,0,0,0
839,715957,187,0,0,0,0
840,716878,204,0,0,0,0
841,717761,207,0,0,0,0
842,718602,208,0,0,0,0
843,719492,209,0,0,0,0
844,720439,210,0,0,0,0
845,721417,211,0,0,0,0
846,722405,210,0,0,0,0
847,723384,209,0,0,0,0
848,724341,209,0,0,0,0
849,725260,210,0,0,0,0
850,726156,211,0,0,0,0
851,727051,210,0,0,0,0
852,727953,209,0,0,0,0
853,728866,209,0,0,0,0
854,729749,191,0,0,0,0
855,730607,191,0,0,0,0
856,731498,193,0,0,0,0
857,732375,190,0,0,0,0
858,733213,192,0,0,0,0
859,734081,208,0,0,0,0
860,734958,206,0,0,0,0
861,735798,206,0,0,0,0
862,736653,207,0,0,0,0
863,737517,206,0,0,0,0
864,738340,207,0,0,0,0
865,739190,209,0,0,0,0
866,740097,210,0,0,0,0
867,741045,211,0,0,0,0
868,741950,213,0,0,0,0
869,742882,214,0,0,0,0
870,743820,214,0,0,0,0
871,744762,214,0,0,0,0
872,745695,216,0,0,0,0
873,746656,215,0,0,0,0
874,747626,214,0,0,0,0
875,748589,216,0,0,0,0
876,749537,217,0,0,0,0
877,750501,216,0,0,0,0
878,751477,216,0,0,0,0
879,752436,216,0,0,0,0
880,753345,216,0,0,0,0
881,754277,215,0,0,0,0
882,755230,214,0,0,0,0
883,756194,214,0,0,0,0
884,757152,214,0,0,0,0
885,758081,214,0,0,0,0
886,758949,215,0,0,0,0
887,759793,218,0,0,0,0
888,760655,217,0,0,0,0
889,761589,216,0,0,0,0
890,762517,216,0,0,0,0
891,763432,214,0,0,0,0
892,764367,212,0,0,0,0
893,765335,213,0,0,0,0
894,766277,213,0,0,0,0
895,767203,212,0,0,0,0
896,768161,210,0,0,0,0
897,769125,210,0,0,0,0
898,770055,210,0,0,0,0
899,770960,210,0,0,0,0
900,771897,209,0,0,0,0
901,772833,214,0,0,0,0
902,773696,214,0,0,0,0
903,774563,213,0,0,0,0
904,775452,211,0,0,0,0
905,776374,211,0,0,0,0
906,777272,207,0,0,0,0
907,778166,206,0,0,0,0
908,779091,206,0,0,0,0
909,780041,207,0,0,0,0
910,780997,207,0,0,0,0
911,781902,208,0,0,0,0
912,782806,209,0,0,0,0
913,783745,209,0,0,0,0
914,784692,209,0,0,0,0
915,785595,210,0,0,0,0
916,786476,208,0,0,0,0
917,787413,208,0,0,0,0
918,788385,209,0,0,0,0
919,789331,210,0,0,0,0
920,790225,210,0,0,0,0
921,791123,210,0,0,0,0
922,792048,216,0,0,0,0
923,792957,216,0,0,0,0
924,793867,215,0,0,0,0
925,794793,215,0,0,0,0
926,795683,216,0,0,0,0
927,796509,211,0,0,0,0
928,797350,210,0,0,0,0
929,798221,208,0,0,0,0
930,799151,208,0,0,0,0
931,800096,207,0,0,0,0
932,801024,207,0,0,0,0
933,801919,208,0,0,0,0
934,802817,209,0,0,0,0
935,803724,207,0,0,0,0
936,804660,208,0,0,0,0
937,805570,208,0,0,0,0
938,806456,208,0,0,0,0
939,807362,207,0,0,0,0
940,808316,207,0,0,0,0
941,809291,207,0,0,0,0
942,810269,206,0,0,0,0
943,811267,207,0,0,0,0
944,812278,207,0,0,0,0
945,813269,209,0,0,0,0
946,814173,210,0,0,0,0
947,815068,209,0,0,0,0
948,815967,210,0,0,0,0
949,816896,208,0,0,0,0
950,817785,206,0,0,0,0
951,818674,206,0,0,0,0
952,819591,206,0,0,0,0
953,820526,206,0,0,0,0
954,821425,206,0,0,0,0
955,822260,207,0,0,0,0
956,823126,205,0,0,0,0
957,824033,206,0,0,0,0
958,824974,206,0,0,0,0
959,825868,208,0,0,0,0
960,826754,209,0,0,0,0
961,827673,209,0,0,0,0
962,828620,209,0,0,0,0
963,829589,208,0,0,0,0
964,830556,208,0,0,0,0
965,831490,209,0,0,0,0
966,832453,210,0,0,0,0
967,833417,211,0,0,0,0
968,834384,212,0,0,0,0
969,835316,213,0,0,0,0
970,836207,211,0,0,0,0
971,837096,212,0,0,0,0
972,838005,211,0,0,0,0
973,838907,210,0,0,0,0
974,839763,209,0,0,0,0
975,840620,209,0,0,0,0
976,841504,206,0,0,0,0
977,842412,206,0,0,0,0
978,843310,205,0,0,0,0
979,844206,204,0,0,0,0
980,845144,204,0,0,0,0
981,846072,205,0,0,0,0
982,846967,205,0,0,0,0
983,847854,206,0,0,0,0
984,848747,208,0,0,0,0
985,849642,208,0,0,0,0
986,850524,209,0,0,0,0
987,851386,209,0,0,0,0
988,852253,208,0,0,0,0
989,853165,209,0,0,0,0
990,854013,210,0,0,0,0
991,854864,202,0,0,0,0
992,855706,201,0,0,0,0
993,856584,201,0,0,0,0
994,857443,201,0,0,0,0
995,858319,200,0,0,0,0
996,859167,207,0,0,0,0
997,859976,208,0,0,0,0
998,860741,210,0,0,0,0
999,861506,210,0,0,0,0
1000,862272,212,0,0,0,0
1001,863076,213,0,0,0,0
1002,863927,196,0,0,0,0
1003,864790,195,0,0,0,0
1004,865633,195,0,0,0,0
1005,866467,194,0,0,0,0
1006,867316,193,0,0,0,0
1007,868195,210,0,0,0,0
1008,869104,210,0,0,0,0
1009,869966,211,0,0,0,0
1010,870774,211,0,0,0,0
1011,871631,213,0,0,0,0
1012,872582,212,0,0,0,0
1013,873557,213,0,0,0,0
1014,874570,212,0,0,0,0
1015,875596,211,0,0,0,0
1016,876616,210,0,0,0,0
1017,877623,213,0,0,0,0
1018,878589,214,0,0,0,0
1019,879543,215,0,0,0,0
1020,880501,213,0,0,0,0
1021,881468,214,0,0,0,0
1022,882461,214,0,0,0,0
1023,883465,213,0,0,0,0
1024,884468,213,0,0,0,0
1025,885471,214,0,0,0,0
1026,886470,214,0,0,0,0
1027,887415,214,0,0,0,0
1028,888370,215,0,0,0,0
1029,889341,214,0,0,0,0
1030,890328,214,0,0,0,0
1031,891314,213,0,0,0,0
1032,892251,213,0,0,0,0
1033,893226,211,0,0,0,0
1034,894221,211,0,0,0,0
1035,895215,212,0,0,0,0
1036,896163,212,0,0,0,0
1037,897089,210,0,0,0,0
1038,897992,210,0,0,0,0
1039,898838,211,0,0,0,0
1040,899712,210,0,0,0,0
1041,900691,209,0,0,0,0
1042,901720,209,0,0,0,0
1043,902762,209,0,0,0,0
1044,903728,210,0,0,0,0
1045,904727,209,0,0,0,0
1046,905705,210,0,0,0,0
1047,906653,212,0,0,0,0
1048,907552,212,0,0,0,0
1049,908451,211,0,0,0,0
1050,909400,212,0,0,0,0
1051,910371,212,0,0,0,0
1052,911297,212,0,0,0,0
1053,912259,211,0,0,0,0
1054,913252,213,0,0,0,0
1055,914263,213,0,0,0,0
1056,915269,214,0,0,0,0
1057,916261,213,0,0,0,0
1058,917253,214,0,0,0,0
1059,918206,214,0,0,0,0
1060,919132,215,0,0,0,0
1061,920081,214,0,0,0,0
1062,921053,215,0,0,0,0
1063,922012,214,0,0,0,0
1064,922937,213,0,0,0,0
1065,923896,211,0,0,0,0
1066,924864,211,0,0,0,0
1067,925837,210,0,0,0,0
1068,926743,211,0,0,0,0
1069,927683,209,0,0,0,0
1070,928655,211,0,0,0,0
1071,929636,211,0,0,0,0
1072,930599,214,0,0,0,0
1073,931566,212,0,0,0,0
1074,932498,213,0,0,0,0
1075,933343,213,0,0,0,0
1076,934207,212,0,0,0,0
1077,935124,209,0,0,0,0
1078,936058,210,0,0,0,0
1079,936950,211,0,0,0,0
1080,937843,209,0,0,0,0
1081,938763,208,0,0,0,0
1082,939687,209,0,0,0,0
1083,940552,209,0,0,0,0
1084,941423,262,0,0,0,0
1085,942332,267,0,0,0,0
1086,943267,269,0,0,0,0
1087,944152,269,0,0,0,0
1088,944978,271,0,0,0,0
1089,945820,217,0,0,0,0
1090,946714,214,0,0,0,0
1091,947680,213,0,0,0,0
1092,948648,214,0,0,0,0
1093,949632,214,0,0,0,0
1094,950605,214,0,0,0,0
1095,951528,216,0,0,0,0
1096,952426,216,0,0,0,0
1097,953347,216,0,0,0,0
1098,954303,215,0,0,0,0
1099,955258,215,0,0,0,0
1100,956215,214,0,0,0,0
1101,957156,215,0,0,0,0
1102,958073,215,0,0,0,0
1103,959011,216,0,0,0,0
1104,959965,215,0,0,0,0
1105,960913,215,0,0,0,0
1106,961818,215,0,0,0,0
1107,962730,216,0,0,0,0
1108,963683,213,0,0,0,0
1109,964640,215,0,0,0,0
1110,965603,214,0,0,0,0
1111,966554,213,0,0,0,0
1112,967483,216,0,0,0,0
1113,968361,219,0,0,0,0
1114,969236,220,0,0,0,0
1115,970109,219,0,0,0,0
1116,970999,218,0,0,0,0
1117,971973,214,0,0,0,0
1118,972953,212,0,0,0,0
1119,973953,209,0,0,0,0
1120,974925,209,0,0,0,0
1121,975893,209,0,0,0,0
1122,976861,209,0,0,0,0
1123,977821,211,0,0,0,0
1124,978693,212,0,0,0,0
1125,979587,213,0,0,0,0
1126,980523,212,0,0,0,0
1127,981496,213,0,0,0,0
1128,982435,212,0,0,0,0
1129,983357,212,0,0,0,0
1130,984326,212,0,0,0,0
1131,985286,212,0,0,0,0
1132,986227,225,0,0,0,0
1133,987084,219,0,0,0,0
1134,987942,222,0,0,0,0
1135,988804,223,0,0,0,0
1136,989652,224,0,0,0,0
1137,990467,213,0,0,0,0
1138,991309,216,0,0,0,0
1139,992184,212,0,0,0,0
1140,993034,209,0,0,0,0
1141,993864,205,0,0,0,0
1142,994615,204,0,0,0,0
1143,995397,203,0,0,0,0
1144,996227,203,0,0,0,0
1145,997117,204,0,0,0,0
1146,998042,208,0,0,0,0
1147,998963,198,0,0,0,0
1148,999879,197,0,0,0,0
1149,1000740,190,0,0,0,0
1150,1001599,176,0,0,0,0
1151,1002461,175,0,0,0,0
1152,1003277,185,0,0,0,0
1153,1004068,190,0,0,0,0
1154,1004859,197,0,0,0,0
1155,1005677,210,0,0,0,0
1156,1006534,209,0,0,0,0
1157,1007429,206,0,0,0,0
1158,1008293,201,0,0,0,0
1159,1009095,201,0,0,0,0
1160,1009919,201,0,0,0,0
1161,1010784,200,0,0,0,0
1162,1011706,200,0,0,0,0
1163,1012627,203,0,0,0,0
1164,1013551,204,0,0,0,0
1165,1014508,204,0,0,0,0
1166,1015487,204,0,0,0,0
1167,1016423,207,0,0,0,0
1168,1017384,208,0,0,0,0
1169,1018346,208,0,0,0,0
1170,1019325,209,0,0,0,0
1171,1020258,214,0,0,0,0
1172,1021179,214,0,0,0,0
1173,1022118,217,0,0,0,0
1174,1023071,218,0,0,0,0
1175,1023986,218,0,0,0,0
1176,1024832,216,0,0,0,0
1177,1025700,215,0,0,0,0
1178,1026619,210,0,0,0,0
1179,1027593,209,0,0,0,0
1180,1028525,209,0,0,0,0
1181,1029428,208,0,0,0,0
1182,1030375,208,0,0,0,0
1183,1031360,209,0,0,0,0
1184,1032308,212,0,0,0,0
1185,1033187,212,0,0,0,0
1186,1033994,212,0,0,0,0
1187,1034878,211,0,0,0,0
1188,1035825,210,0,0,0,0
1189,1036817,206,0,0,0,0
1190,1037827,205,0,0,0,0
1191,1038856,204,0,0,0,0
1192,1039884,206,0,0,0,0
1193,1040882,207,0,0,0,0
1194,1041881,208,0,0,0,0
1195,1042884,209,0,0,0,0
1196,1043881,209,0,0,0,0
1197,1044839,210,0,0,0,0
1198,1045800,211,0,0,0,0
1199,1046781,212,0,0,0,0
1200,1047729,213,0,0,0,0
1201,1048664,214,0,0,0,0
1202,1049617,213,0,0,0,0
1203,1050572,214,0,0,0,0
1204,1051516,214,0,0,0,0
1205,1052461,214,0,0,0,0
1206,1053442,214,0,0,0,0
1207,1054435,214,0,0,0,0
1208,1055427,213,0,0,0,0
1209,1056420,213,0,0,0,0
1210,1057394,212,0,0,0,0
1211,1058347,212,0,0,0,0
1212,1059319,211,0,0,0,0
1213,1060290,211,0,0,0,0
1214,1061247,209,0,0,0,0
1215,1062160,209,0,0,0,0
1216,1063083,202,0,0,0,0
1217,1064002,201,0,0,0,0
1218,1064862,200,0,0,0,0
1219,1065722,200,0,0,0,0
1220,1066617,198,0,0,0,0
1221,1067550,203,0,0,0,0
1222,1068444,204,0,0,0,0
1223,1069370,204,0,0,0,0
1224,1070329,205,0,0,0,0
1225,1071299,206,0,0,0,0
1226,1072204,206,0,0,0,0
1227,1073131,200,0,0,0,0
1228,1074055,200,0,0,0,0
1229,1074960,200,0,0,0,0
1230,1075829,200,0,0,0,0
1231,1076722,199,0,0,0,0
1232,1077642,205,0,0,0,0
1233,1078592,205,0,0,0,0
1234,1079509,204,0,0,0,0
1235,1080445,205,0,0,0,0
1236,1081402,206,0,0,0,0
1237,1082341,206,0,0,0,0
1238,1083281,208,0,0,0,0
1239,1084214,208,0,0,0,0
1240,1085153,213,0,0,0,0
1241,1086018,176,0,0,0,0
1242,1086924,178,0,0,0,0
1243,1087841,177,0,0,0,0
1244,1088768,178,0,0,0,0
1245,1089701,175,0,0,0,0
1246,1090566,212,0,0,0,0
1247,1091439,213,0,0,0,0
1248,1092324,212,0,0,0,0
1249,1093223,212,0,0,0,0
1250,1094085,213,0,0,0,0
1251,1094963,212,0,0,0,0
1252,1095867,212,0,0,0,0
1253,1096793,213,0,0,0,0
1254,1097684,214,0,0,0,0
1255,1098585,212,0,0,0,0
1256,1099494,212,0,0,0,0
1257,1100429,211,0,0,0,0
1258,1101368,210,0,0,0,0
1259,1102264,210,0,0,0,0
1260,1103168,210,0,0,0,0
1261,1104086,210,0,0,0,0
1262,1104999,209,0,0,0,0
1263,1105899,211,0,0,0,0
1264,1106759,211,0,0,0,0
1265,1107615,211,0,0,0,0
1266,1108470,212,0,0,0,0
1267,1109290,213,0,0,0,0
1268,1110083,211,0,0,0,0
1269,1110897,210,0,0,0,0
1270,1111745,210,0,0,0,0
1271,1112640,208,0,0,0,0
1272,1113562,206,0,0,0,0
1273,1114486,206,0,0,0,0
1274,1115392,208,0,0,0,0
1275,1116244,184,0,0,0,0
1276,1117113,185,0,0,0,0
1277,1117998,186,0,0,0,0
1278,1118916,185,0,0,0,0
1279,1119810,185,0,0,0,0
1280,1120695,216,0,0,0,0
1281,1121610,215,0,0,0,0
1282,1122523,217,0,0,0,0
1283,1123429,219,0,0,0,0
1284,1124342,217,0,0,0,0
1285,1125280,210,0,0,0,0
1286,1126245,211,0,0,0,0
1287,1127158,210,0,0,0,0
1288,1128134,209,0,0,0,0
1289,1129142,211,0,0,0,0
1290,1130131,213,0,0,0,0
1291,1131077,212,0,0,0,0
1292,1132003,212,0,0,0,0
1293,1132937,211,0,0,0,0
1294,1133870,211,0,0,0,0
1295,1134799,211,0,0,0,0
1296,1135663,212,0,0,0,0
1297,1136542,211,0,0,0,0
1298,1137463,211,0,0,0,0
1299,1138444,210,0,0,0,0
1300,1139362,210,0,0,0,0
1301,1140266,209,0,0,0,0
1302,1141186,210,0,0,0,0
1303,1142146,210,0,0,0,0
1304,1143075,211,0,0,0,0
1305,1144007,210,0,0,0,0
1306,1144944,210,0,0,0,0
1307,1145860,210,0,0,0,0
1308,1146718,210,0,0,0,0
1309,1147585,210,0,0,0,0
1310,1148483,210,0,0,0,0
1311,1149411,210,0,0,0,0
1312,1150297,210,0,0,0,0
1313,1151213,210,0,0,0,0
1314,1152163,209,0,0,0,0
1315,1153093,210,0,0,0,0
1316,1153976,210,0,0,0,0
1317,1154891,210,0,0,0,0
1318,1155816,210,0,0,0,0
1319,1156716,211,0,0,0,0
1320,1157584,210,0,0,0,0
1321,1158483,210,0,0,0,0
1322,1159423,210,0,0,0,0
1323,1160381,211,0,0,0,0
1324,1161299,211,0,0,0,0
1325,1162249,212,0,0,0,0
1326,1163230,212,0,0,0,0
1327,1164180,213,0,0,0,0
1328,1165065,239,0,0,0,0
1329,1165923,246,0,0,0,0
1330,1166783,240,0,0,0,0
1331,1167649,242,0,0,0,0
1332,1168677,247,0,0,0,0
1333,1169294,186,0,0,0,0
1334,1169979,199,0,0,0,0
1335,1170736,228,0,0,0,0
1336,1173058,198,0,0,0,0
1337,1173813,221,0,0,0,0
1338,1174156,222,0,0,0,0
1339,1175184,215,0,0,0,0
1340,1176028,180,0,0,0,0
1341,1177510,184,0,0,0,0
1342,1178090,202,0,0,0,0
1343,1178538,242,0,0,0,0
1344,1180316,226,0,0,0,0
1345,1181020,227,0,0,0,0
1346,1181734,226,0,0,0,0
1347,1182484,205,0,0,0,0
1348,1183299,194,0,0,0,0
1349,1184184,193,0,0,0,0
1350,1185084,194,0,0,0,0
1351,1185981,196,0,0,0,0
1352,1186899,196,0,0,0,0
1353,1187832,197,0,0,0,0
1354,1188766,199,0,0,0,0
1355,1189422,249,0,0,0,0
1356,1190556,247,0,0,0,0
1357,1191404,248,0,0,0,0
1358,1191799,261,0,0,0,0
1359,1192233,254,0,0,0,0
1360,1193032,226,0,0,0,0
1361,1193819,191,0,0,0,0
1362,1194608,192,0,0,0,0
1363,1195388,199,0,0,0,0
1364,1196188,205,0,0,0,0
1365,1196982,169,0,0,0,0
1366,1197759,206,0,0,0,0
1367,1198542,197,0,0,0,0
1368,1199023,214,0,0,0,0
1369,1199424,203,0,0,0,0
1370,1200144,168,0,0,0,0
1371,1200597,161,0,0,0,0
1372,1201113,234,0,0,0,0
1373,1202565,212,0,0,0,0
1374,1203574,204,0,0,0,0
1375,1204515,256,0,0,0,0
1376,1205441,241,0,0,0,0
1377,1206345,185,0,0,0,0
1378,1207224,248,0,0,0,0
1379,1208080,276,0,0,0,0
1380,1208897,341,0,0,0,0
1381,1209701,420,0,0,0,0
1382,1210487,417,0,0,0,0
1383,1211282,351,0,0,0,0
1384,1212091,353,0,0,0,0
1385,1212919,294,0,0,0,0
1386,1213724,221,0,0,0,0
1387,1214563,281,0,0,0,0
1388,1215437,291,0,0,0,0
1389,1216318,256,0,0,0,0
1390,1216828,299,0,0,0,0
1391,1217160,399,0,0,0,0
1392,1217793,382,0,0,0,0
1393,1218864,326,0,0,0,0
1394,1219696,326,0,0,0,0
1395,1220513,302,0,0,0,0
1396,1221343,235,0,0,0,0
1397,1222209,190,0,0,0,0
1398,1223093,212,0,0,0,0
1399,1223994,211,0,0,0,0
1400,1224903,215,0,0,0,0
1401,1225771,219,0,0,0,0
1402,1226664,218,0,0,0,0
1403,1227599,215,0,0,0,0
1404,1228520,212,0,0,0,0
1405,1229430,213,0,0,0,0
1406,1230327,210,0,0,0,0
1407,1231238,209,0,0,0,0
1408,1232170,212,0,0,0,0
1409,1233116,272,0,0,0,0
1410,1234054,285,0,0,0,0
1411,1234959,280,0,0,0,0
1412,1235896,303,0,0,0,0
1413,1236817,262,0,0,0,0
1414,1237699,148,0,0,0,0
1415,1238557,165,0,0,0,0
1416,1239453,173,0,0,0,0
1417,1240425,181,0,0,0,0
1418,1241358,208,0,0,0,0
1419,1242272,217,0,0,0,0
1420,1243195,217,0,0,0,0
1421,1244146,215,0,0,0,0
1422,1245088,215,0,0,0,0
1423,1245985,217,0,0,0,0
1424,1246893,190,0,0,0,0
1425,1247672,169,0,0,0,0
1426,1250422,172,0,0,0,0
1427,1251295,157,0,0,0,0
1428,1252135,155,0,0,0,0
1429,1252970,206,0,0,0,0
1430,1253821,236,0,0,0,0
1431,1254702,235,0,0,0,0
1432,1255615,234,0,0,0,0
1433,1256506,239,0,0,0,0
1434,1257398,228,0,0,0,0
1435,1258338,226,0,0,0,0
1436,1259282,222,0,0,0,0
1437,1260211,221,0,0,0,0
1438,1261135,216,0,0,0,0
1439,1262086,213,0,0,0,0
1440,1263041,213,0,0,0,0
1441,1263985,214,0,0,0,0
1442,1264959,215,0,0,0,0
1443,1265928,216,0,0,0,0
1444,1266898,214,0,0,0,0
1445,1267817,217,0,0,0,0
1446,1268736,216,0,0,0,0
1447,1269706,215,0,0,0,0
1448,1270644,215,0,0,0,0
1449,1271537,218,0,0,0,0
1450,1272427,215,0,0,0,0
1451,1273349,215,0,0,0,0
1452,1274246,216,0,0,0,0
1453,1275122,217,0,0,0,0
1454,1275980,220,0,0,0,0
1455,1276871,223,0,0,0,0
1456,1277805,224,0,0,0,0
1457,1278707,226,0,0,0,0
1458,1279585,229,0,0,0,0
1459,1280480,230,0,0,0,0
1460,1281423,229,0,0,0,0
1461,1282366,227,0,0,0,0
1462,1283267,224,0,0,0,0
1463,1284170,220,0,0,0,0
1464,1284994,194,0,0,0,0
1465,1285779,142,0,0,0,0
1466,1286536,131,0,0,0,0
1467,1287327,130,0,0,0,0
1468,1288174,140,0,0,0,0
1469,1289057,159,0,0,0,0
1470,1289958,251,0,0,0,0
1471,1290841,263,0,0,0,0
1472,1291822,262,0,0,0,0
1473,1292477,282,0,0,0,0
1474,1293252,322,0,0,0,0
1475,1294004,317,0,0,0,0
1476,1294741,390,0,0,0,0
1477,1295469,454,0,0,0,0
1478,1296225,388,0,0,0,0
1479,1297034,338,0,0,0,0
1480,1297979,276,0,0,0,0
1481,1298905,184,0,0,0,0
1482,1299826,193,0,0,0,0
1483,1300766,180,0,0,0,0
1484,1301679,250,0,0,0,0
1485,1302616,322,0,0,0,0
1486,1303590,305,0,0,0,0
1487,1304575,303,0,0,0,0
1488,1305569,347,0,0,0,0
1489,1306538,286,0,0,0,0
1490,1307543,175,0,0,0,0
1491,1308551,296,0,0,0,0
1492,1309512,398,0,0,0,0
1493,1310444,338,0,0,0,0
1494,1311318,338,0,0,0,0
1495,1312162,387,0,0,0,0
1496,1313001,373,0,0,0,0
1497,1313338,293,0,0,0,0
1498,1313714,406,0,0,0,0
1499,1314517,418,0,0,0,0
1500,1315519,433,0,0,0,0
1501,1316417,389,0,0,0,0
1502,1317304,372,0,0,0,0
1503,1318195,340,0,0,0,0
1504,1319106,316,0,0,0,0
1505,1319997,257,0,0,0,0
1506,1320870,261,0,0,0,0
1507,1321789,264,0,0,0,0
1508,1322745,269,0,0,0,0
1509,1323739,240,0,0,0,0
1510,1324748,237,0,0,0,0
1511,1325756,241,0,0,0,0
1512,1326734,257,0,0,0,0
1513,1327693,186,0,0,0,0
1514,1328626,163,0,0,0,0
1515,1329522,142,0,0,0,0
1516,1330404,166,0,0,0,0
1517,1331259,186,0,0,0,0
1518,1332166,179,0,0,0,0
1519,1333131,176,0,0,0,0
1520,1334099,198,0,0,0,0
1521,1335074,161,0,0,0,0
1522,1336016,128,0,0,0,0
1523,1336952,134,0,0,0,0
1524,1337901,164,0,0,0,0
1525,1338796,156,0,0,0,0
1526,1339717,181,0,0,0,0
1527,1340655,193,0,0,0,0
1528,1341570,224,0,0,0,0
1529,1342464,220,0,0,0,0
1530,1343356,193,0,0,0,0
1531,1344231,211,0,0,0,0
1532,1345099,217,0,0,0,0
1533,1345956,197,0,0,0,0
1534,1346822,198,0,0,0,0
1535,1347718,180,0,0,0,0
1536,1348617,156,0,0,0,0
1537,1349513,179,0,0,0,0
1538,1350385,180,0,0,0,0
1539,1351224,154,0,0,0,0
1540,1352036,202,0,0,0,0
1541,1352844,199,0,0,0,0
1542,1353689,166,0,0,0,0
1543,1354596,186,0,0,0,0
1544,1355543,209,0,0,0,0
1545,1356474,213,0,0,0,0
1546,1357396,204,0,0,0,0
1547,1358279,203,0,0,0,0
1548,1359160,180,0,0,0,0
1549,1360035,188,0,0,0,0
1550,1360889,177,0,0,0,0
1551,1361712,182,0,0,0,0
1552,1362270,236,0,0,0,0
1553,1363324,292,0,0,0,0
1554,1364074,278,0,0,0,0
1555,1364883,315,0,0,0,0
1556,1365729,392,0,0,0,0
1557,1366584,392,0,0,0,0
1558,1367444,395,0,0,0,0
1559,1368299,460,0,0,0,0
1560,1369185,399,0,0,0,0
1561,1370086,304,0,0,0,0
1562,1371008,213,0,0,0,0
1563,1371948,214,0,0,0,0
1564,1372902,212,0,0,0,0
1565,1373862,219,0,0,0,0
1566,1374808,207,0,0,0,0
1567,1375765,208,0,0,0,0
1568,1376722,210,0,0,0,0
1569,1377627,202,0,0,0,0
1570,1378574,205,0,0,0,0
1571,1379552,200,0,0,0,0
1572,1380540,204,0,0,0,0
1573,1381549,163,0,0,0,0
1574,1382530,179,0,0,0,0
1575,1383557,186,0,0,0,0
1576,1384563,160,0,0,0,0
1577,1385539,156,0,0,0,0
1578,1386460,166,0,0,0,0
1579,1387400,160,0,0,0,0
1580,1387884,195,0,0,0,0
1581,1388276,216,0,0,0,0
1582,1389121,217,0,0,0,0
1583,1390004,284,0,0,0,0
1584,1390916,334,0,0,0,0
1585,1391826,310,0,0,0,0
1586,1392713,361,0,0,0,0
1587,1393584,435,0,0,0,0
1588,1394450,460,0,0,0,0
1589,1395312,213,0,0,0,0
1590,1396167,272,0,0,0,0
1591,1397018,245,0,0,0,0
1592,1397878,236,0,0,0,0
1593,1398752,209,0,0,0,0
1594,1399598,194,0,0,0,0
1595,1400471,160,0,0,0,0
1596,1401375,165,0,0,0,0
1597,1402300,168,0,0,0,0
1598,1403262,190,0,0,0,0
1599,1404266,203,0,0,0,0
1600,1405306,219,0,0,0,0
1601,1406340,219,0,0,0,0
1602,1407320,218,0,0,0,0
1603,1408378,224,0,0,0,0
1604,1409443,227,0,0,0,0
1605,1410485,226,0,0,0,0
1606,1411510,232,0,0,0,0
1607,1412522,238,0,0,0,0
1608,1413498,242,0,0,0,0
1609,1414448,204,0,0,0,0
1610,1415370,197,0,0,0,0
1611,1416223,180,0,0,0,0
1612,1416512,178,0,0,0,0
1613,1417112,151,0,0,0,0
1614,1417731,248,0,0,0,0
1615,1418679,241,0,0,0,0
1616,1419473,241,0,0,0,0
1617,1419898,274,0,0,0,0
1618,1420322,286,0,0,0,0
1619,1421194,254,0,0,0,0
1620,1422055,251,0,0,0,0
1621,1422969,243,0,0,0,0
1622,1423895,212,0,0,0,0
1623,1424805,211,0,0,0,0
1624,1425734,216,0,0,0,0
1625,1426695,214,0,0,0,0
1626,1427630,226,0,0,0,0
1627,1428591,235,0,0,0,0
1628,1429534,233,0,0,0,0
1629,1430306,267,0,0,0,0
1630,1430692,283,0,0,0,0
1631,1431285,287,0,0,0,0
1632,1432118,277,0,0,0,0
1633,1432930,288,0,0,0,0
1634,1433428,270,0,0,0,0
1635,1433715,299,0,0,0,0
1636,1434494,299,0,0,0,0
1637,1435300,310,0,0,0,0
1638,1436158,290,0,0,0,0
1639,1438020,304,0,0,0,0
1640,1438563,342,0,0,0,0
1641,1439774,365,0,0,0,0
1642,1441450,386,0,0,0,0
1643,1442316,395,0,0,0,0
1644,1444030,340,0,0,0,0
1645,1444916,248,0,0,0,0
1646,1445809,204,0,0,0,0
1647,1446699,211,0,0,0,0
1648,1447619,219,0,0,0,0
1649,1448552,227,0,0,0,0
1650,1449492,233,0,0,0,0
1651,1450412,233,0,0,0,0
1652,1451330,233,0,0,0,0
1653,1452284,237,0,0,0,0
1654,1453246,241,0,0,0,0
1655,1454206,241,0,0,0,0
1656,1455120,244,0,0,0,0
1657,1456038,243,0,0,0,0
1658,1456975,241,0,0,0,0
1659,1457940,242,0,0,0,0
1660,1458886,244,0,0,0,0
1661,1459780,240,0,0,0,0
1662,1460663,241,0,0,0,0
1663,1461570,242,0,0,0,0
1664,1462466,239,0,0,0,0
1665,1463370,232,0,0,0,0
1666,1464246,232,0,0,0,0
1667,1465099,232,0,0,0,0
1668,1465978,229,0,0,0,0
1669,1466924,229,0,0,0,0
1670,1467870,234,0,0,0,0
1671,1468765,233,0,0,0,0
1672,1469638,230,0,0,0,0
1673,1470524,233,0,0,0,0
1674,1471436,235,0,0,0,0
1675,1472325,234,0,0,0,0
1676,1472791,260,0,0,0,0
1677,1473190,301,0,0,0,0
1678,1473991,323,0,0,0,0
1679,1474484,344,0,0,0,0
1680,1474998,339,0,0,0,0
1681,1475528,282,0,0,0,0
1682,1476363,231,0,0,0,0
1683,1476686,236,0,0,0,0
1684,1477648,243,0,0,0,0
1685,1478519,227,0,0,0,0
1686,1478963,309,0,0,0,0
1687,1482157,259,0,0,0,0
1688,1482903,287,0,0,0,0
1689,1483691,274,0,0,0,0
1690,1484535,293,0,0,0,0
1691,1485409,228,0,0,0,0
1692,1486366,225,0,0,0,0
1693,1487341,213,0,0,0,0
1694,1488309,225,0,0,0,0
1695,1488597,237,0,0,0,0
1696,1489213,294,0,0,0,0
1697,1490849,314,0,0,0,0
1698,1491639,341,0,0,0,0
1699,1492409,371,0,0,0,0
1700,1493174,399,0,0,0,0
1701,1493957,405,0,0,0,0
1702,1494758,364,0,0,0,0
1703,1495214,364,0,0,0,0
1704,1495553,343,0,0,0,0
1705,1496075,339,0,0,0,0
1706,1497074,307,0,0,0,0
1707,1497823,327,0,0,0,0
1708,1499291,310,0,0,0,0
1709,1499939,311,0,0,0,0
1710,1500265,347,0,0,0,0
1711,1500802,339,0,0,0,0
1712,1502028,325,0,0,0,0
1713,1502934,346,0,0,0,0
1714,1503815,347,0,0,0,0
1715,1504682,248,0,0,0,0
1716,1504998,268,0,0,0,0
1717,1505600,274,0,0,0,0
1718,1506546,246,0,0,0,0
1719,1507123,263,0,0,0,0
1720,1507504,265,0,0,0,0
1721,1508454,238,0,0,0,0
1722,1508852,249,0,0,0,0
1723,1509885,270,0,0,0,0
1724,1510433,237,0,0,0,0
1725,1510737,250,0,0,0,0
1726,1513558,262,0,0,0,0
1727,1514378,259,0,0,0,0
1728,1515239,237,0,0,0,0
1729,1516131,220,0,0,0,0
1730,1517026,208,0,0,0,0
1731,1517938,196,0,0,0,0
1732,1518853,199,0,0,0,0
1733,1519782,188,0,0,0,0
1734,1520647,189,0,0,0,0
1735,1521474,198,0,0,0,0
1736,1522323,215,0,0,0,0
1737,1523284,222,0,0,0,0
1738,1524276,248,0,0,0,0
1739,1525298,245,0,0,0,0
1740,1526339,248,0,0,0,0
1741,1527374,247,0,0,0,0
1742,1528393,215,0,0,0,0
1743,1529378,186,0,0,0,0
1744,1530330,166,0,0,0,0
1745,1531209,151,0,0,0,0
1746,1532118,155,0,0,0,0
1747,1533080,170,0,0,0,0
1748,1534027,179,0,0,0,0
1749,1534920,166,0,0,0,0
1750,1535890,162,0,0,0,0
1751,1536735,184,0,0,0,0
1752,1537630,195,0,0,0,0
1753,1538517,202,0,0,0,0
1754,1539000,243,0,0,0,0
1755,1539395,246,0,0,0,0
1756,1540254,224,0,0,0,0
1757,1541186,265,0,0,0,0
1758,1541705,306,0,0,0,0
1759,1543538,310,0,0,0,0
1760,1544426,318,0,0,0,0
1761,1545365,306,0,0,0,0
1762,1546283,252,0,0,0,0
1763,1547153,221,0,0,0,0
1764,1547593,174,0,0,0,0
1765,1548052,202,0,0,0,0
1766,1548537,202,0,0,0,0
1767,1548828,230,0,0,0,0
1768,1549142,273,0,0,0,0
1769,1549520,427,0,0,0,0
1770,1550254,413,0,0,0,0
1771,1550999,392,0,0,0,0
1772,1551777,416,0,0,0,0
1773,1552444,429,0,0,0,0
1774,1553308,359,0,0,0,0
1775,1554104,371,0,0,0,0
1776,1554471,391,0,0,0,0
1777,1555057,252,0,0,0,0
1778,1555892,232,0,0,0,0
1779,1556742,206,0,0,0,0
1780,1557618,206,0,0,0,0
1781,1558555,210,0,0,0,0
1782,1559500,206,0,0,0,0
1783,1560454,210,0,0,0,0
1784,1561422,214,0,0,0,0
1785,1562371,276,0,0,0,0
1786,1563296,275,0,0,0,0
1787,1563979,305,0,0,0,0
1788,1564370,329,0,0,0,0
1789,1564945,328,0,0,0,0
1790,1565699,251,0,0,0,0
1791,1566001,262,0,0,0,0
1792,1566417,187,0,0,0,0
1793,1566910,265,0,0,0,0
1794,1567513,281,0,0,0,0
1795,1567909,266,0,0,0,0
1796,1568892,266,0,0,0,0
1797,1569471,285,0,0,0,0
1798,1570294,213,0,0,0,0
1799,1571163,191,0,0,0,0
1800,1572039,202,0,0,0,0
1801,1572911,203,0,0,0,0
1802,1573773,202,0,0,0,0
1803,1574615,204,0,0,0,0
1804,1575444,208,0,0,0,0
1805,1576331,211,0,0,0,0
1806,1577285,210,0,0,0,0
1807,1578286,211,0,0,0,0
1808,1579300,211,0,0,0,0
1809,1580327,212,0,0,0,0
1810,1581363,213,0,0,0,0
1811,1582386,213,0,0,0,0
1812,1583342,214,0,0,0,0
1813,1584300,215,0,0,0,0
1814,1585270,215,0,0,0,0
1815,1586230,216,0,0,0,0
1816,1587192,260,0,0,0,0
1817,1588159,257,0,0,0,0
1818,1588840,266,0,0,0,0
1819,1589134,277,0,0,0,0
1820,1590088,278,0,0,0,0
1821,1591038,222,0,0,0,0
1822,1591997,222,0,0,0,0
1823,1592953,224,0,0,0,0
1824,1593895,218,0,0,0,0
1825,1594820,217,0,0,0,0
1826,1595706,217,0,0,0,0
1827,1596585,218,0,0,0,0
1828,1597486,213,0,0,0,0
1829,1598422,211,0,0,0,0
1830,1599390,211,0,0,0,0
1831,1600368,212,0,0,0,0
1832,1601271,212,0,0,0,0
1833,1602106,214,0,0,0,0
1834,1602892,259,0,0,0,0
1835,1603715,262,0,0,0,0
1836,1604574,261,0,0,0,0
1837,1605469,260,0,0,0,0
1838,1606384,260,0,0,0,0
1839,1607296,215,0,0,0,0
1840,1608179,191,0,0,0,0
1841,1609039,195,0,0,0,0
1842,1609844,196,0,0,0,0
1843,1610601,197,0,0,0,0
1844,1611349,198,0,0,0,0
1845,1612093,218,0,0,0,0
1846,1612890,238,0,0,0,0
1847,1613805,243,0,0,0,0
1848,1614707,242,0,0,0,0
1849,1615596,238,0,0,0,0
1850,1616485,210,0,0,0,0
1851,1617353,165,0,0,0,0
1852,1618239,181,0,0,0,0
1853,1619096,181,0,0,0,0
1854,1620001,181,0,0,0,0
1855,1620982,204,0,0,0,0
1856,1621988,216,0,0,0,0
1857,1623039,216,0,0,0,0
1858,1624074,179,0,0,0,0
1859,1625078,173,0,0,0,0
1860,1626092,174,0,0,0,0
1861,1627095,175,0,0,0,0
1862,1628048,168,0,0,0,0
1863,1628956,212,0,0,0,0
1864,1629821,212,0,0,0,0
1865,1630766,211,0,0,0,0
1866,1631728,210,0,0,0,0
1867,1632719,210,0,0,0,0
1868,1633724,209,0,0,0,0
1869,1634727,209,0,0,0,0
1870,1635720,205,0,0,0,0
1871,1636701,203,0,0,0,0
1872,1637664,203,0,0,0,0
1873,1638593,203,0,0,0,0
1874,1639530,202,0,0,0,0
1875,1640475,205,0,0,0,0
1876,1641431,205,0,0,0,0
1877,1642340,204,0,0,0,0
1878,1643281,205,0,0,0,0
1879,1644221,199,0,0,0,0
1880,1645167,163,0,0,0,0
1881,1646097,163,0,0,0,0
1882,1647000,167,0,0,0,0
1883,1647929,164,0,0,0,0
1884,1648886,172,0,0,0,0
1885,1649816,209,0,0,0,0
1886,1650757,210,0,0,0,0
1887,1651705,206,0,0,0,0
1888,1652653,208,0,0,0,0
1889,1653594,207,0,0,0,0
1890,1654522,201,0,0,0,0
1891,1655438,204,0,0,0,0
1892,1656329,203,0,0,0,0
1893,1657192,204,0,0,0,0
1894,1658096,203,0,0,0,0
1895,1659018,210,0,0,0,0
1896,1659924,208,0,0,0,0
1897,1660808,209,0,0,0,0
1898,1661699,209,0,0,0,0
1899,1662598,209,0,0,0,0
1900,1663467,208,0,0,0,0
1901,1664353,207,0,0,0,0
1902,1665279,206,0,0,0,0
1903,1666215,206,0,0,0,0
1904,1667128,206,0,0,0,0
1905,1668041,206,0,0,0,0
1906,1668937,211,0,0,0,0
1907,1669826,211,0,0,0,0
1908,1670687,210,0,0,0,0
1909,1671580,210,0,0,0,0
1910,1672477,210,0,0,0,0
1911,1673334,208,0,0,0,0
1912,1674159,202,0,0,0,0
1913,1675002,202,0,0,0,0
1914,1675884,202,0,0,0,0
1915,1676788,203,0,0,0,0
1916,1677693,199,0,0,0,0
1917,1678596,207,0,0,0,0
1918,1679527,207,0,0,0,0
1919,1680460,206,0,0,0,0
1920,1681387,205,0,0,0,0
1921,1682281,222,0,0,0,0
1922,1683197,223,0,0,0,0
1923,1684099,224,0,0,0,0
1924,1684998,225,0,0,0,0
1925,1685907,226,0,0,0,0
1926,1686859,209,0,0,0,0
1927,1687843,208,0,0,0,0
1928,1688827,208,0,0,0,0
1929,1689780,209,0,0,0,0
1930,1690744,208,0,0,0,0
1931,1691697,209,0,0,0,0
1932,1692631,207,0,0,0,0
1933,1693584,209,0,0,0,0
1934,1694534,209,0,0,0,0
1935,1695459,211,0,0,0,0
1936,1696392,210,0,0,0,0
1937,1697336,213,0,0,0,0
1938,1698288,211,0,0,0,0
1939,1699230,210,0,0,0,0
1940,1700147,210,0,0,0,0
1941,1701080,211,0,0,0,0
1942,1702018,212,0,0,0,0
1943,1702957,212,0,0,0,0
1944,1703856,213,0,0,0,0
1945,1704770,211,0,0,0,0
1946,1705706,208,0,0,0,0
1947,1706650,207,0,0,0,0
1948,1707580,203,0,0,0,0
1949,1708482,202,0,0,0,0
1950,1709345,203,0,0,0,0
1951,1710175,207,0,0,0,0
1952,1711012,207,0,0,0,0
1953,1711872,203,0,0,0,0
1954,1712728,203,0,0,0,0
1955,1713557,202,0,0,0,0
1956,1714409,203,0,0,0,0
1957,1715284,203,0,0,0,0
1958,1716161,211,0,0,0,0
1959,1717003,211,0,0,0,0
1960,1717853,215,0,0,0,0
1961,1718717,213,0,0,0,0
1962,1719604,212,0,0,0,0
1963,1720470,214,0,0,0,0
1964,1721360,212,0,0,0,0
1965,1722288,210,0,0,0,0
1966,1723200,210,0,0,0,0
1967,1724112,213,0,0,0,0
1968,1725046,210,0,0,0,0
1969,1725991,209,0,0,0,0
1970,1726918,210,0,0,0,0
1971,1727858,210,0,0,0,0
1972,1728803,206,0,0,0,0
1973,1729748,207,0,0,0,0
1974,1730687,208,0,0,0,0
1975,1731633,207,0,0,0,0
1976,1732539,207,0,0,0,0
1977,1733414,208,0,0,0,0
1978,1734314,208,0,0,0,0
1979,1735255,209,0,0,0,0
1980,1736159,208,0,0,0,0
1981,1737063,207,0,0,0,0
1982,1738002,207,0,0,0,0
1983,1738931,208,0,0,0,0
1984,1739829,210,0,0,0,0
1985,1740776,221,0,0,0,0
1986,1741747,238,0,0,0,0
1987,1742681,239,0,0,0,0
1988,1743612,239,0,0,0,0
1989,1744560,239,0,0,0,0
1990,1745486,229,0,0,0,0
1991,1746353,213,0,0,0,0
1992,1747236,213,0,0,0,0
1993,1748133,213,0,0,0,0
1994,1749009,213,0,0,0,0
1995,1749870,213,0,0,0,0
1996,1750796,210,0,0,0,0
1997,1751713,210,0,0,0,0
1998,1752602,210,0,0,0,0
1999,1753481,209,0,0,0,0
2000,1754387,209,0,0,0,0
2001,1755309,210,0,0,0,0
2002,1756203,209,0,0,0,0
2003,1757100,207,0,0,0,0
2004,1758006,208,0,0,0,0
2005,1758905,245,0,0,0,0
2006,1759780,244,0,0,0,0
2007,1760696,246,0,0,0,0
2008,1761639,246,0,0,0,0
2009,1762555,244,0,0,0,0
2010,1763443,212,0,0,0,0
2011,1764343,218,0,0,0,0
2012,1765228,216,0,0,0,0
2013,1766081,218,0,0,0,0
2014,1766969,219,0,0,0,0
2015,1767912,215,0,0,0,0
2016,1768849,212,0,0,0,0
2017,1769794,212,0,0,0,0
2018,1770723,213,0,0,0,0
2019,1771670,214,0,0,0,0
2020,1772626,213,0,0,0,0
2021,1773584,214,0,0,0,0
2022,1774537,214,0,0,0,0
2023,1775462,213,0,0,0,0
2024,1776394,213,0,0,0,0
2025,1777328,213,0,0,0,0
2026,1778252,212,0,0,0,0
2027,1779154,212,0,0,0,0
2028,1780039,212,0,0,0,0
2029,1780940,212,0,0,0,0
2030,1781865,212,0,0,0,0
2031,1782764,211,0,0,0,0
2032,1783709,211,0,0,0,0
2033,1784657,210,0,0,0,0
2034,1785621,209,0,0,0,0
2035,1786548,209,0,0,0,0
2036,1787492,209,0,0,0,0
2037,1788442,208,0,0,0,0
2038,1789400,209,0,0,0,0
2039,1790332,209,0,0,0,0
2040,1791291,210,0,0,0,0
2041,1792247,209,0,0,0,0
2042,1793201,210,0,0,0,0
2043,1794108,210,0,0,0,0
2044,1795045,210,0,0,0,0
2045,1795992,203,0,0,0,0
2046,1796879,207,0,0,0,0
2047,1797776,209,0,0,0,0
2048,1798687,209,0,0,0,0
2049,1799566,209,0,0,0,0
2050,1800491,217,0,0,0,0
2051,1801444,228,0,0,0,0
2052,1802359,247,0,0,0,0
2053,1803273,224,0,0,0,0
2054,1804202,230,0,0,0,0
2055,1805125,230,0,0,0,0
2056,1806012,221,0,0,0,0
2057,1806949,203,0,0,0,0
2058,1807893,228,0,0,0,0
2059,1808822,239,0,0,0,0
2060,1809732,239,0,0,0,0
2061,1810634,236,0,0,0,0
2062,1811551,236,0,0,0,0
2063,1812476,235,0,0,0,0
2064,1813384,218,0,0,0,0
2065,1814325,217,0,0,0,0
2066,1815270,212,0,0,0,0
2067,1816150,209,0,0,0,0
2068,1817051,221,0,0,0,0
2069,1817978,224,0,0,0,0
2070,1818910,225,0,0,0,0
2071,1819873,231,0,0,0,0
2072,1820818,234,0,0,0,0
2073,1821775,226,0,0,0,0
2074,1822746,226,0,0,0,0
2075,1823720,228,0,0,0,0
2076,1824672,225,0,0,0,0
2077,1825633,224,0,0,0,0
2078,1826598,240,0,0,0,0
2079,1827564,244,0,0,0,0
2080,1828471,224,0,0,0,0
2081,1829379,224,0,0,0,0
2082,1830338,224,0,0,0,0
2083,1831298,204,0,0,0,0
2084,1832224,199,0,0,0,0
2085,1833174,220,0,0,0,0
2086,1834137,220,0,0,0,0
2087,1835085,217,0,0,0,0
2088,1835991,216,0,0,0,0
2089,1836921,215,0,0,0,0
2090,1837877,212,0,0,0,0
2091,1838830,212,0,0,0,0
2092,1839755,257,0,0,0,0
2093,1840622,266,0,0,0,0
2094,1840994,236,0,0,0,0
2095,1841495,209,0,0,0,0
2096,1842057,194,0,0,0,0
2097,1842368,154,0,0,0,0
2098,1843238,143,0,0,0,0
2099,1844112,174,0,0,0,0
2100,1844962,204,0,0,0,0
2101,1845831,222,0,0,0,0
2102,1846742,222,0,0,0,0
2103,1847665,226,0,0,0,0
2104,1848564,229,0,0,0,0
2105,1849491,232,0,0,0,0
2106,1850435,233,0,0,0,0
2107,1851361,236,0,0,0,0
2108,1852271,236,0,0,0,0
2109,1853223,234,0,0,0,0
2110,1854173,233,0,0,0,0
2111,1855092,232,0,0,0,0
2112,1856051,229,0,0,0,0
2113,1857022,230,0,0,0,0
2114,1857959,231,0,0,0,0
2115,1858855,231,0,0,0,0
2116,1859759,232,0,0,0,0
2117,1860693,233,0,0,0,0
2118,1861570,231,0,0,0,0
2119,1862469,231,0,0,0,0
2120,1863426,230,0,0,0,0
2121,1864380,229,0,0,0,0
2122,1865331,229,0,0,0,0
2123,1866280,231,0,0,0,0
2124,1867239,186,0,0,0,0
2125,1868177,184,0,0,0,0
2126,1869045,182,0,0,0,0
2127,1869895,178,0,0,0,0
2128,1870779,174,0,0,0,0
2129,1871738,215,0,0,0,0
2130,1872690,215,0,0,0,0
2131,1873644,216,0,0,0,0
2132,1874558,216,0,0,0,0
2133,1875497,219,0,0,0,0
2134,1876458,220,0,0,0,0
2135,1877429,220,0,0,0,0
2136,1878377,260,0,0,0,0
2137,1879358,272,0,0,0,0
2138,1880348,269,0,0,0,0
2139,1881339,268,0,0,0,0
2140,1882289,274,0,0,0,0
2141,1883246,224,0,0,0,0
2142,1884205,221,0,0,0,0
2143,1885161,222,0,0,0,0
2144,1886074,225,0,0,0,0
2145,1886996,222,0,0,0,0
2146,1887937,218,0,0,0,0
2147,1888884,220,0,0,0,0
2148,1889836,221,0,0,0,0
2149,1890763,218,0,0,0,0
2150,1891703,217,0,0,0,0
2151,1892661,219,0,0,0,0
2152,1893591,219,0,0,0,0
2153,1894502,218,0,0,0,0
2154,1895443,219,0,0,0,0
2155,1896392,258,0,0,0,0
2156,1897301,237,0,0,0,0
2157,1898232,235,0,0,0,0
2158,1899175,234,0,0,0,0
2159,1900120,287,0,0,0,0
2160,1901041,242,0,0,0,0
2161,1901988,268,0,0,0,0
2162,1902943,272,0,0,0,0
2163,1903890,295,0,0,0,0
2164,1904816,247,0,0,0,0
2165,1905760,254,0,0,0,0
2166,1906724,254,0,0,0,0
2167,1907698,255,0,0,0,0
2168,1908631,234,0,0,0,0
2169,1909578,231,0,0,0,0
2170,1910536,233,0,0,0,0
2171,1911485,228,0,0,0,0
2172,1912362,228,0,0,0,0
2173,1913247,222,0,0,0,0
2174,1914168,231,0,0,0,0
2175,1915116,225,0,0,0,0
2176,1916090,190,0,0,0,0
2177,1917028,199,0,0,0,0
2178,1917986,199,0,0,0,0
2179,1918971,225,0,0,0,0
2180,1919966,236,0,0,0,0
2181,1920919,287,0,0,0,0
2182,1921893,251,0,0,0,0
2183,1922880,245,0,0,0,0
2184,1923873,214,0,0,0,0
2185,1924831,208,0,0,0,0
2186,1925778,205,0,0,0,0
2187,1926719,224,0,0,0,0
2188,1927664,224,0,0,0,0
2189,1928602,220,0,0,0,0
2190,1929489,221,0,0,0,0
2191,1930363,221,0,0,0,0
2192,1931254,215,0,0,0,0
2193,1932089,213,0,0,0,0
2194,1932931,216,0,0,0,0
2195,1933868,214,0,0,0,0
2196,1934829,209,0,0,0,0
2197,1935827,216,0,0,0,0
2198,1936829,216,0,0,0,0
2199,1937830,216,0,0,0,0
2200,1938825,216,0,0,0,0
2201,1939796,215,0,0,0,0
2202,1940716,216,0,0,0,0
2203,1941633,216,0,0,0,0
2204,1942585,216,0,0,0,0
2205,1943543,216,0,0,0,0
2206,1944503,216,0,0,0,0
2207,1945474,214,0,0,0,0
2208,1946463,215,0,0,0,0
2209,1947466,216,0,0,0,0
2210,1948442,216,0,0,0,0
2211,1949438,215,0,0,0,0
2212,1950449,215,0,0,0,0
2213,1951447,215,0,0,0,0
2214,1952396,216,0,0,0,0
2215,1953351,216,0,0,0,0
2216,1954315,218,0,0,0,0
2217,1955292,219,0,0,0,0
2218,1956228,243,0,0,0,0
2219,1957162,242,0,0,0,0
2220,1958085,241,0,0,0,0
2221,1958971,241,0,0,0,0
2222,1959872,237,0,0,0,0
2223,1960790,207,0,0,0,0
2224,1961686,205,0,0,0,0
2225,1962538,205,0,0,0,0
2226,1963413,202,0,0,0,0
2227,1964307,206,0,0,0,0
2228,1965221,203,0,0,0,0
2229,1966079,201,0,0,0,0
2230,1966937,203,0,0,0,0
2231,1967793,203,0,0,0,0
2232,1968617,202,0,0,0,0
2233,1969422,207,0,0,0,0
2234,1970250,209,0,0,0,0
2235,1971092,208,0,0,0,0
2236,1971910,209,0,0,0,0
2237,1972698,208,0,0,0,0
2238,1973461,211,0,0,0,0
2239,1974259,215,0,0,0,0
2240,1975071,215,0,0,0,0
2241,1975860,214,0,0,0,0
2242,1976684,214,0,0,0,0
2243,1977529,213,0,0,0,0
2244,1978387,210,0,0,0,0
2245,1979199,209,0,0,0,0
2246,1980015,209,0,0,0,0
2247,1980857,209,0,0,0,0
2248,1981768,195,0,0,0,0
2249,1982651,195,0,0,0,0
2250,1983514,196,0,0,0,0
2251,1984416,197,0,0,0,0
2252,1985333,198,0,0,0,0
2253,1986227,213,0,0,0,0
2254,1987097,213,0,0,0,0
2255,1988021,212,0,0,0,0
2256,1988947,212,0,0,0,0
2257,1989821,212,0,0,0,0
2258,1990708,210,0,0,0,0
2259,1991605,209,0,0,0,0
2260,1992504,210,0,0,0,0
2261,1993367,217,0,0,0,0
2262,1994236,217,0,0,0,0
2263,1995113,220,0,0,0,0
2264,1995986,220,0,0,0,0
2265,1996795,220,0,0,0,0
2266,1997637,224,0,0,0,0
2267,1998508,221,0,0,0,0
2268,1999366,222,0,0,0,0
2269,2000185,220,0,0,0,0
2270,2001007,228,0,0,0,0
2271,2001836,183,0,0,0,0
2272,2002652,177,0,0,0,0
2273,2003508,176,0,0,0,0
2274,2004420,182,0,0,0,0
2275,2005352,174,0,0,0,0
2276,2006309,210,0,0,0,0
2277,2007239,220,0,0,0,0
2278,2008173,220,0,0,0,0
2279,2009099,218,0,0,0,0
2280,2010025,219,0,0,0,0
2281,2010959,218,0,0,0,0
2282,2011884,218,0,0,0,0
2283,2012810,220,0,0,0,0
2284,2013727,220,0,0,0,0
2285,2014649,222,0,0,0,0
2286,2015577,223,0,0,0,0
2287,2016497,225,0,0,0,0
2288,2017385,224,0,0,0,0
2289,2018235,224,0,0,0,0
2290,2019125,223,0,0,0,0
2291,2020036,222,0,0,0,0
2292,2020972,220,0,0,0,0
2293,2021919,219,0,0,0,0
2294,2022864,218,0,0,0,0
2295,2023767,219,0,0,0,0
2296,2024691,219,0,0,0,0
2297,2025611,219,0,0,0,0
2298,2026554,220,0,0,0,0
2299,2027523,219,0,0,0,0
2300,2028442,220,0,0,0,0
2301,2029335,221,0,0,0,0
2302,2030234,219,0,0,0,0
2303,2031072,211,0,0,0,0
2304,2031864,224,0,0,0,0
2305,2032626,223,0,0,0,0
2306,2033375,219,0,0,0,0
2307,2034151,221,0,0,0,0
2308,2035041,214,0,0,0,0
2309,2035951,196,0,0,0,0
2310,2036883,195,0,0,0,0
2311,2037821,196,0,0,0,0
2312,2038770,192,0,0,0,0
2313,2039727,204,0,0,0,0
2314,2040682,209,0,0,0,0
2315,2041640,210,0,0,0,0
2316,2042587,213,0,0,0,0
2317,2043529,217,0,0,0,0
2318,2044471,219,0,0,0,0
2319,2045408,220,0,0,0,0
2320,2046317,220,0,0,0,0
2321,2047256,218,0,0,0,0
2322,2048241,215,0,0,0,0
2323,2049278,215,0,0,0,0
2324,2050273,215,0,0,0,0
2325,2051325,214,0,0,0,0
2326,2052414,214,0,0,0,0
2327,2053485,215,0,0,0,0
2328,2054483,214,0,0,0,0
2329,2055490,212,0,0,0,0
2330,2056504,213,0,0,0,0
2331,2057510,214,0,0,0,0
2332,2058520,213,0,0,0,0
2333,2059515,215,0,0,0,0
2334,2060462,216,0,0,0,0
2335,2061415,216,0,0,0,0
2336,2062368,215,0,0,0,0
2337,2063330,216,0,0,0,0
2338,2064306,216,0,0,0,0
2339,2065281,216,0,0,0,0
2340,2066272,217,0,0,0,0
2341,2067271,216,0,0,0,0
2342,2068242,216,0,0,0,0
2343,2069211,210,0,0,0,0
2344,2070176,208,0,0,0,0
2345,2071126,216,0,0,0,0
2346,2072041,232,0,0,0,0
2347,2072970,230,0,0,0,0
2348,2073859,239,0,0,0,0
2349,2074761,244,0,0,0,0
2350,2075681,235,0,0,0,0
2351,2076625,221,0,0,0,0
2352,2077577,219,0,0,0,0
2353,2078536,216,0,0,0,0
2354,2079506,213,0,0,0,0
2355,2080444,212,0,0,0,0
2356,2081379,213,0,0,0,0
2357,2082270,215,0,0,0,0
2358,2083113,215,0,0,0,0
2359,2083958,198,0,0,0,0
2360,2084858,205,0,0,0,0
2361,2085797,206,0,0,0,0
2362,2086716,182,0,0,0,0
2363,2087626,180,0,0,0,0
2364,2088527,218,0,0,0,0
2365,2089420,212,0,0,0,0
2366,2090310,209,0,0,0,0
2367,2091224,238,0,0,0,0
2368,2092146,245,0,0,0,0
2369,2093062,222,0,0,0,0
2370,2094000,219,0,0,0,0
2371,2094958,223,0,0,0,0
2372,2095922,287,0,0,0,0
2373,2096861,285,0,0,0,0
2374,2097796,260,0,0,0,0
2375,2098704,285,0,0,0,0
2376,2099588,285,0,0,0,0
2377,2100489,222,0,0,0,0
2378,2101411,223,0,0,0,0
2379,2102351,244,0,0,0,0
2380,2103317,219,0,0,0,0
2381,2104310,215,0,0,0,0
2382,2105268,216,0,0,0,0
2383,2106246,215,0,0,0,0
2384,2107232,215,0,0,0,0
2385,2108232,216,0,0,0,0
2386,2109209,216,0,0,0,0
2387,2110202,215,0,0,0,0
2388,2111199,212,0,0,0,0
2389,2112174,211,0,0,0,0
2390,2113125,210,0,0,0,0
2391,2114083,209,0,0,0,0
2392,2115050,210,0,0,0,0
2393,2116001,217,0,0,0,0
2394,2116955,219,0,0,0,0
2395,2117925,218,0,0,0,0
2396,2118922,218,0,0,0,0
2397,2119898,220,0,0,0,0
2398,2120876,215,0,0,0,0
2399,2121846,206,0,0,0,0
2400,2122785,198,0,0,0,0
2401,2123685,206,0,0,0,0
2402,2124547,206,0,0,0,0
2403,2125450,205,0,0,0,0
2404,2126377,215,0,0,0,0
2405,2127269,224,0,0,0,0
2406,2128205,218,0,0,0,0
2407,2129166,215,0,0,0,0
2408,2130153,215,0,0,0,0
2409,2131153,214,0,0,0,0
2410,2132119,214,0,0,0,0
2411,2133088,213,0,0,0,0
2412,2134057,214,0,0,0,0
2413,2135017,219,0,0,0,0
2414,2135943,219,0,0,0,0
2415,2136833,226,0,0,0,0
2416,2137685,208,0,0,0,0
2417,2138485,209,0,0,0,0
2418,2139284,204,0,0,0,0
2419,2140111,203,0,0,0,0
2420,2140989,196,0,0,0,0
2421,2141941,214,0,0,0,0
2422,2142889,217,0,0,0,0
2423,2143830,218,0,0,0,0
2424,2144695,219,0,0,0,0
2425,2145567,219,0,0,0,0
2426,2146463,219,0,0,0,0
2427,2147384,215,0,0,0,0
2428,2148321,214,0,0,0,0
2429,2149265,212,0,0,0,0
2430,2150203,212,0,0,0,0
2431,2151127,212,0,0,0,0
2432,2152032,211,0,0,0,0
2433,2152958,214,0,0,0,0
2434,2153931,215,0,0,0,0
2435,2154900,215,0,0,0,0
2436,2155886,215,0,0,0,0
2437,2156869,215,0,0,0,0
2438,2157789,213,0,0,0,0
2439,2158731,213,0,0,0,0
2440,2159696,213,0,0,0,0
2441,2160703,212,0,0,0,0
2442,2161703,214,0,0,0,0
2443,2162634,216,0,0,0,0
2444,2163564,217,0,0,0,0
2445,2164443,218,0,0,0,0
2446,2165301,217,0,0,0,0
2447,2166169,215,0,0,0,0
2448,2167111,213,0,0,0,0
2449,2168063,212,0,0,0,0
2450,2168961,212,0,0,0,0
2451,2169885,213,0,0,0,0
2452,2170848,212,0,0,0,0
2453,2171811,211,0,0,0,0
2454,2172785,211,0,0,0,0
2455,2173752,211,0,0,0,0
2456,2174668,212,0,0,0,0
2457,2175584,214,0,0,0,0
2458,2176518,214,0,0,0,0
2459,2177471,215,0,0,0,0
2460,2178418,214,0,0,0,0
2461,2179306,213,0,0,0,0
2462,2180228,214,0,0,0,0
2463,2181178,213,0,0,0,0
2464,2182118,213,0,0,0,0
2465,2183023,214,0,0,0,0
2466,2183953,214,0,0,0,0
2467,2184866,213,0,0,0,0
2468,2185763,214,0,0,0,0
2469,2186711,213,0,0,0,0
2470,2187692,212,0,0,0,0
2471,2188663,213,0,0,0,0
2472,2189567,213,0,0,0,0
2473,2190500,213,0,0,0,0
2474,2191441,213,0,0,0,0
2475,2192401,214,0,0,0,0
2476,2193285,213,0,0,0,0
2477,2194197,212,0,0,0,0
2478,2195158,212,0,0,0,0
2479,2196120,211,0,0,0,0
2480,2197052,202,0,0,0,0
2481,2197934,204,0,0,0,0
2482,2198849,201,0,0,0,0
2483,2199799,201,0,0,0,0
2484,2200733,202,0,0,0,0
2485,2201612,211,0,0,0,0
2486,2202524,208,0,0,0,0
2487,2203490,211,0,0,0,0
2488,2204457,211,0,0,0,0
2489,2205397,212,0,0,0,0
2490,2206366,211,0,0,0,0
2491,2207343,211,0,0,0,0
2492,2208311,213,0,0,0,0
2493,2209257,212,0,0,0,0
2494,2210218,212,0,0,0,0
2495,2211196,213,0,0,0,0
2496,2212142,214,0,0,0,0
2497,2213109,214,0,0,0,0
2498,2214085,214,0,0,0,0
2499,2215063,214,0,0,0,0
2500,2215989,216,0,0,0,0
2501,2216962,216,0,0,0,0
2502,2217939,217,0,0,0,0
2503,2218829,218,0,0,0,0
2504,2219678,218,0,0,0,0
2505,2220551,216,0,0,0,0
2506,2221485,216,0,0,0,0
2507,2222462,214,0,0,0,0
2508,2223365,213,0,0,0,0
2509,2224311,213,0,0,0,0
2510,2225232,213,0,0,0,0
2511,2226161,213,0,0,0,0
2512,2227030,213,0,0,0,0
2513,2227923,213,0,0,0,0
2514,2228843,212,0,0,0,0
2515,2229810,212,0,0,0,0
2516,2230739,212,0,0,0,0
2517,2231616,212,0,0,0,0
2518,2232511,212,0,0,0,0
2519,2233417,211,0,0,0,0
2520,2234310,211,0,0,0,0
2521,2235172,211,0,0,0,0
2522,2236048,210,0,0,0,0
2523,2236959,215,0,0,0,0
2524,2237867,216,0,0,0,0
2525,2238683,221,0,0,0,0
2526,2239487,217,0,0,0,0
2527,2240356,210,0,0,0,0
2528,2241228,212,0,0,0,0
2529,2241674,270,0,0,0,0
2530,2242141,243,0,0,0,0
2531,2245066,307,0,0,0,0
2532,2245808,261,0,0,0,0
2533,2246568,251,0,0,0,0
2534,2247342,170,0,0,0,0
2535,2248117,198,0,0,0,0
2536,2248873,198,0,0,0,0
2537,2249641,199,0,0,0,0
2538,2250408,198,0,0,0,0
2539,2251170,203,0,0,0,0
2540,2251924,201,0,0,0,0
2541,2252672,202,0,0,0,0
2542,2253419,205,0,0,0,0
2543,2254173,206,0,0,0,0
2544,2254932,210,0,0,0,0
2545,2255689,209,0,0,0,0
2546,2256449,208,0,0,0,0
2547,2257206,191,0,0,0,0
2548,2258006,192,0,0,0,0
2549,2258802,173,0,0,0,0
2550,2259679,235,0,0,0,0
2551,2260639,231,0,0,0,0
2552,2261601,255,0,0,0,0
2553,2262558,245,0,0,0,0
2554,2263512,251,0,0,0,0
2555,2264431,263,0,0,0,0
2556,2265333,284,0,0,0,0
2557,2266216,345,0,0,0,0
2558,2267050,406,0,0,0,0
2559,2267875,422,0,0,0,0
2560,2268725,385,0,0,0,0
2561,2269593,328,0,0,0,0
2562,2270453,274,0,0,0,0
2563,2271297,279,0,0,0,0
2564,2272145,264,0,0,0,0
2565,2272977,214,0,0,0,0
2566,2273792,277,0,0,0,0
2567,2274627,270,0,0,0,0
2568,2275475,268,0,0,0,0
2569,2276338,299,0,0,0,0
2570,2277210,314,0,0,0,0
2571,2278053,240,0,0,0,0
2572,2278882,245,0,0,0,0
2573,2279683,214,0,0,0,0
2574,2280456,228,0,0,0,0
2575,2281213,262,0,0,0,0
2576,2281957,330,0,0,0,0
2577,2282759,311,0,0,0,0
2578,2283053,368,0,0,0,0
2579,2283652,392,0,0,0,0
2580,2284523,437,0,0,0,0
2581,2285705,355,0,0,0,0
2582,2286338,394,0,0,0,0
2583,2287238,318,0,0,0,0
2584,2287980,288,0,0,0,0
2585,2288334,215,0,0,0,0
2586,2288721,181,0,0,0,0
2587,2289449,142,0,0,0,0
2588,2290103,125,0,0,0,0
2589,2290518,103,0,0,0,0
2590,2290923,99,0,0,0,0
2591,2291651,118,0,0,0,0
2592,2292397,150,0,0,0,0
2593,2293140,161,0,0,0,0
2594,2293859,207,0,0,0,0
2595,2294585,242,0,0,0,0
2596,2294920,268,0,0,0,0
2597,2295308,202,0,0,0,0
2598,2295643,202,0,0,0,0
2599,2296007,175,0,0,0,0
2600,2296729,223,0,0,0,0
2601,2297456,207,0,0,0,0
2602,2298265,212,0,0,0,0
2603,2298965,213,0,0,0,0
2604,2299824,184,0,0,0,0
2605,2300575,161,0,0,0,0
2606,2301428,141,0,0,0,0
2607,2302035,141,0,0,0,0
2608,2303151,166,0,0,0,0
2609,2303726,174,0,0,0,0
2610,2304013,149,0,0,0,0
2611,2304853,169,0,0,0,0
2612,2305665,195,0,0,0,0
2613,2306463,168,0,0,0,0
2614,2307271,224,0,0,0,0
2615,2308114,235,0,0,0,0
2616,2308959,249,0,0,0,0
2617,2309529,250,0,0,0,0
2618,2309815,246,0,0,0,0
2619,2310404,273,0,0,0,0
2620,2311533,290,0,0,0,0
2621,2312378,336,0,0,0,0
2622,2313225,320,0,0,0,0
2623,2313657,332,0,0,0,0
2624,2314080,345,0,0,0,0
2625,2314675,345,0,0,0,0
2626,2314988,391,0,0,0,0
2627,2315930,441,0,0,0,0
2628,2316291,493,0,0,0,0
2629,2316614,369,0,0,0,0
2630,2318102,419,0,0,0,0
2631,2319016,309,0,0,0,0
2632,2319956,289,0,0,0,0
2633,2320926,257,0,0,0,0
2634,2321911,264,0,0,0,0
2635,2322896,191,0,0,0,0
2636,2323887,261,0,0,0,0
2637,2324864,265,0,0,0,0
2638,2325812,269,0,0,0,0
2639,2326769,233,0,0,0,0
2640,2327748,210,0,0,0,0
2641,2328752,151,0,0,0,0
2642,2329764,135,0,0,0,0
2643,2330777,202,0,0,0,0
2644,2331762,246,0,0,0,0
2645,2332743,299,0,0,0,0
2646,2333676,418,0,0,0,0
2647,2334557,421,0,0,0,0
2648,2335406,299,0,0,0,0
2649,2336229,283,0,0,0,0
2650,2336782,308,0,0,0,0
2651,2337800,242,0,0,0,0
2652,2338586,258,0,0,0,0
2653,2339367,265,0,0,0,0
2654,2339964,299,0,0,0,0
2655,2340872,276,0,0,0,0
2656,2343558,289,0,0,0,0
2657,2344360,285,0,0,0,0
2658,2345138,265,0,0,0,0
2659,2345512,220,0,0,0,0
2660,2345907,183,0,0,0,0
2661,2346670,186,0,0,0,0
2662,2347457,176,0,0,0,0
2663,2348255,240,0,0,0,0
2664,2349054,235,0,0,0,0
2665,2349844,254,0,0,0,0
2666,2350153,268,0,0,0,0
2667,2350635,278,0,0,0,0
2668,2351279,268,0,0,0,0
2669,2352310,296,0,0,0,0
2670,2352883,274,0,0,0,0
2671,2353188,297,0,0,0,0
2672,2354066,262,0,0,0,0
2673,2354917,274,0,0,0,0
2674,2355759,259,0,0,0,0
2675,2356218,310,0,0,0,0
2676,2356579,219,0,0,0,0
2677,2357390,282,0,0,0,0
2678,2358183,291,0,0,0,0
2679,2358952,281,0,0,0,0
2680,2359699,261,0,0,0,0
2681,2360437,289,0,0,0,0
2682,2360929,279,0,0,0,0
2683,2361241,208,0,0,0,0
2684,2361557,169,0,0,0,0
2685,2361888,220,0,0,0,0
2686,2362452,287,0,0,0,0
2687,2363477,300,0,0,0,0
2688,2363969,358,0,0,0,0
2689,2365140,404,0,0,0,0
2690,2367898,442,0,0,0,0
2691,2368717,308,0,0,0,0
2692,2369213,270,0,0,0,0
2693,2369612,228,0,0,0,0
2694,2370498,185,0,0,0,0
2695,2371181,174,0,0,0,0
2696,2371789,132,0,0,0,0
2697,2372214,150,0,0,0,0
2698,2372671,149,0,0,0,0
2699,2373868,215,0,0,0,0
2700,2376450,186,0,0,0,0
2701,2376812,220,0,0,0,0
2702,2377323,274,0,0,0,0
2703,2378165,340,0,0,0,0
2704,2378998,368,0,0,0,0
2705,2379854,320,0,0,0,0
2706,2380850,361,0,0,0,0
2707,2381840,324,0,0,0,0
2708,2382823,288,0,0,0,0
2709,2383764,213,0,0,0,0
2710,2386428,272,0,0,0,0
2711,2387024,288,0,0,0,0
2712,2387450,228,0,0,0,0
2713,2388125,195,0,0,0,0
2714,2388482,237,0,0,0,0
2715,2389231,193,0,0,0,0
2716,2391195,155,0,0,0,0
2717,2394229,159,0,0,0,0
2718,2394599,262,0,0,0,0
2719,2396790,140,0,0,0,0
2720,2397759,364,0,0,0,0
2721,2398477,451,0,0,0,0
2722,2400142,451,0,0,0,0
2723,2400508,432,0,0,0,0
2724,2401339,325,0,0,0,0
2725,2401730,332,0,0,0,0
2726,2402239,271,0,0,0,0
2727,2402877,311,0,0,0,0
2728,2403353,269,0,0,0,0
2729,2403811,349,0,0,0,0
2730,2406363,321,0,0,0,0
2731,2406941,310,0,0,0,0
2732,2407828,222,0,0,0,0
2733,2408745,224,0,0,0,0
2734,2409667,208,0,0,0,0
2735,2410596,208,0,0,0,0
2736,2411535,235,0,0,0,0
2737,2412407,261,0,0,0,0
2738,2413109,290,0,0,0,0
2739,2414124,258,0,0,0,0
2740,2415078,249,0,0,0,0
2741,2415992,234,0,0,0,0
2742,2416903,257,0,0,0,0
2743,2417611,246,0,0,0,0
2744,2418088,246,0,0,0,0
2745,2419527,288,0,0,0,0
2746,2420422,322,0,0,0,0
2747,2421363,423,0,0,0,0
2748,2422299,427,0,0,0,0
2749,2423186,411,0,0,0,0
2750,2425009,334,0,0,0,0
2751,2425472,285,0,0,0,0
2752,2425780,213,0,0,0,0
2753,2426617,186,0,0,0,0
2754,2427091,170,0,0,0,0
2755,2427441,175,0,0,0,0
2756,2428249,194,0,0,0,0
2757,2429039,193,0,0,0,0
2758,2429801,195,0,0,0,0
2759,2430569,204,0,0,0,0
2760,2431286,193,0,0,0,0
2761,2431841,197,0,0,0,0
2762,2432307,192,0,0,0,0
2763,2433247,215,0,0,0,0
2764,2434186,207,0,0,0,0
2765,2435095,311,0,0,0,0
2766,2435953,294,0,0,0,0
2767,2438460,352,0,0,0,0
2768,2439306,378,0,0,0,0
2769,2440162,407,0,0,0,0
2770,2441123,369,0,0,0,0
2771,2441957,351,0,0,0,0
2772,2442337,332,0,0,0,0
2773,2442864,236,0,0,0,0
2774,2443810,229,0,0,0,0
2775,2444176,270,0,0,0,0
2776,2444618,295,0,0,0,0
2777,2445341,261,0,0,0,0
2778,2445682,281,0,0,0,0
2779,2446582,254,0,0,0,0
2780,2447458,212,0,0,0,0
2781,2448318,191,0,0,0,0
2782,2449174,206,0,0,0,0
2783,2450053,213,0,0,0,0
2784,2450980,245,0,0,0,0
2785,2451887,253,0,0,0,0
2786,2452324,274,0,0,0,0
2787,2452778,256,0,0,0,0
2788,2453643,209,0,0,0,0
2789,2454484,203,0,0,0,0
2790,2455277,222,0,0,0,0
2791,2456013,200,0,0,0,0
2792,2456442,261,0,0,0,0
2793,2456744,275,0,0,0,0
2794,2457210,299,0,0,0,0
2795,2457741,347,0,0,0,0
2796,2458175,290,0,0,0,0
2797,2458895,268,0,0,0,0
2798,2459616,310,0,0,0,0
2799,2460359,221,0,0,0,0
2800,2461132,100,0,0,0,0
2801,2461927,107,0,0,0,0
2802,2462730,138,0,0,0,0
2803,2463555,152,0,0,0,0
2804,2464413,184,0,0,0,0
2805,2465307,198,0,0,0,0
2806,2466235,211,0,0,0,0
2807,2467173,207,0,0,0,0
2808,2468118,206,0,0,0,0
2809,2469068,205,0,0,0,0
2810,2469993,205,0,0,0,0
2811,2470919,206,0,0,0,0
2812,2471821,206,0,0,0,0
2813,2472699,206,0,0,0,0
2814,2473581,219,0,0,0,0
2815,2474449,220,0,0,0,0
2816,2475304,191,0,0,0,0
2817,2476177,191,0,0,0,0
2818,2477078,193,0,0,0,0
2819,2477978,181,0,0,0,0
2820,2478911,184,0,0,0,0
2821,2479809,214,0,0,0,0
2822,2480686,213,0,0,0,0
2823,2481559,212,0,0,0,0
2824,2482511,212,0,0,0,0
2825,2483452,208,0,0,0,0
2826,2484335,207,0,0,0,0
2827,2485235,210,0,0,0,0
2828,2486142,210,0,0,0,0
2829,2487099,212,0,0,0,0
2830,2488092,210,0,0,0,0
2831,2489093,214,0,0,0,0
2832,2490056,216,0,0,0,0
2833,2490975,225,0,0,0,0
2834,2491873,226,0,0,0,0
2835,2492737,229,0,0,0,0
2836,2493537,230,0,0,0,0
2837,2494342,227,0,0,0,0
2838,2494751,222,0,0,0,0
2839,2495134,226,0,0,0,0
2840,2495906,229,0,0,0,0
2841,2496662,253,0,0,0,0
2842,2497461,257,0,0,0,0
2843,2498268,249,0,0,0,0
2844,2499101,242,0,0,0,0
2845,2499977,238,0,0,0,0
2846,2500922,217,0,0,0,0
2847,2501875,212,0,0,0,0
2848,2502808,211,0,0,0,0
2849,2503707,211,0,0,0,0
2850,2504563,212,0,0,0,0
2851,2505424,183,0,0,0,0
2852,2506334,184,0,0,0,0
2853,2507279,168,0,0,0,0
2854,2508270,169,0,0,0,0
2855,2509203,171,0,0,0,0
2856,2510203,196,0,0,0,0
2857,2510888,169,0,0,0,0
2858,2511225,184,0,0,0,0
2859,2512251,184,0,0,0,0
2860,2513310,182,0,0,0,0
2861,2514296,179,0,0,0,0
2862,2515303,205,0,0,0,0
2863,2516323,206,0,0,0,0
2864,2517341,206,0,0,0,0
2865,2518333,215,0,0,0,0
2866,2519223,202,0,0,0,0
2867,2520034,202,0,0,0,0
2868,2520894,207,0,0,0,0
2869,2521830,206,0,0,0,0
2870,2522868,197,0,0,0,0
2871,2523875,214,0,0,0,0
2872,2524853,220,0,0,0,0
2873,2525794,219,0,0,0,0
2874,2526741,221,0,0,0,0
2875,2527667,221,0,0,0,0
2876,2528599,219,0,0,0,0
2877,2529544,214,0,0,0,0
2878,2530486,212,0,0,0,0
2879,2531435,208,0,0,0,0
2880,2532363,213,0,0,0,0
2881,2533202,221,0,0,0,0
2882,2534047,228,0,0,0,0
2883,2534882,227,0,0,0,0
2884,2535703,229,0,0,0,0
2885,2536586,224,0,0,0,0
2886,2537534,214,0,0,0,0
2887,2538483,206,0,0,0,0
2888,2539470,206,0,0,0,0
2889,2540477,206,0,0,0,0
2890,2541491,207,0,0,0,0
2891,2542515,208,0,0,0,0
2892,2543549,210,0,0,0,0
2893,2544596,211,0,0,0,0
2894,2545649,212,0,0,0,0
2895,2546706,212,0,0,0,0
2896,2547741,212,0,0,0,0
2897,2548771,213,0,0,0,0
2898,2549791,213,0,0,0,0
2899,2550809,213,0,0,0,0
2900,2551771,211,0,0,0,0
2901,2552738,212,0,0,0,0
2902,2553724,210,0,0,0,0
2903,2554728,200,0,0,0,0
2904,2555741,200,0,0,0,0
2905,2556648,202,0,0,0,0
2906,2557575,199,0,0,0,0
2907,2558539,199,0,0,0,0
2908,2559514,207,0,0,0,0
2909,2560510,206,0,0,0,0
2910,2561488,205,0,0,0,0
2911,2562421,206,0,0,0,0
2912,2563379,206,0,0,0,0
2913,2564333,206,0,0,0,0
2914,2565302,205,0,0,0,0
2915,2566219,206,0,0,0,0
2916,2567179,205,0,0,0,0
2917,2568171,205,0,0,0,0
2918,2569183,204,0,0,0,0
2919,2570132,205,0,0,0,0
2920,2571095,203,0,0,0,0
2921,2572043,206,0,0,0,0
2922,2572920,207,0,0,0,0
2923,2573831,208,0,0,0,0
2924,2574780,208,0,0,0,0
2925,2575652,209,0,0,0,0
2926,2576537,207,0,0,0,0
2927,2577455,207,0,0,0,0
2928,2578400,206,0,0,0,0
2929,2579311,206,0,0,0,0
2930,2580207,206,0,0,0,0
2931,2581057,207,0,0,0,0
2932,2581938,206,0,0,0,0
2933,2582824,206,0,0,0,0
2934,2583702,205,0,0,0,0
2935,2584520,204,0,0,0,0
2936,2585364,204,0,0,0,0
2937,2586232,203,0,0,0,0
2938,2587166,202,0,0,0,0
2939,2588110,202,0,0,0,0
2940,2589003,202,0,0,0,0
2941,2589950,201,0,0,0,0
2942,2590921,201,0,0,0,0
2943,2591917,201,0,0,0,0
2944,2592870,203,0,0,0,0
2945,2593857,203,0,0,0,0
2946,2594848,205,0,0,0,0
2947,2595849,206,0,0,0,0
2948,2596801,208,0,0,0,0
2949,2597781,209,0,0,0,0
2950,2598786,210,0,0,0,0
2951,2599805,209,0,0,0,0
2952,2600785,210,0,0,0,0
2953,2601780,208,0,0,0,0
2954,2602841,208,0,0,0,0
2955,2603897,208,0,0,0,0
2956,2604873,208,0,0,0,0
2957,2605872,207,0,0,0,0
2958,2606859,208,0,0,0,0
2959,2607784,207,0,0,0,0
2960,2608763,205,0,0,0,0
2961,2609767,203,0,0,0,0
2962,2610777,203,0,0,0,0
2963,2611775,203,0,0,0,0
2964,2612716,202,0,0,0,0
2965,2613717,203,0,0,0,0
2966,2614736,203,0,0,0,0
2967,2615747,199,0,0,0,0
2968,2616676,200,0,0,0,0
2969,2617648,199,0,0,0,0
2970,2618640,199,0,0,0,0
2971,2619632,199,0,0,0,0
2972,2620569,205,0,0,0,0
2973,2621480,197,0,0,0,0
2974,2622434,198,0,0,0,0
2975,2623413,199,0,0,0,0
2976,2624395,203,0,0,0,0
2977,2625301,183,0,0,0,0
2978,2626259,190,0,0,0,0
2979,2627194,191,0,0,0,0
2980,2628117,203,0,0,0,0
2981,2629008,200,0,0,0,0
2982,2629921,218,0,0,0,0
2983,2630844,218,0,0,0,0
2984,2631750,219,0,0,0,0
2985,2632700,202,0,0,0,0
2986,2633640,201,0,0,0,0
2987,2634544,202,0,0,0,0
2988,2635451,202,0,0,0,0
2989,2636412,200,0,0,0,0
2990,2637393,205,0,0,0,0
2991,2638339,205,0,0,0,0
2992,2639305,204,0,0,0,0
2993,2640294,204,0,0,0,0
2994,2641304,204,0,0,0,0
2995,2642268,206,0,0,0,0
2996,2643277,205,0,0,0,0
2997,2644306,207,0,0,0,0
2998,2645360,208,0,0,0,0
2999,2646369,209,0,0,0,0
3000,2647405,208,0,0,0,0
3001,2648454,210,0,0,0,0
3002,2649486,210,0,0,0,0
3003,2650498,211,0,0,0,0
3004,2651538,210,0,0,0,0
3005,2652569,211,0,0,0,0
3006,2653569,210,0,0,0,0
3007,2654535,210,0,0,0,0
3008,2655527,209,0,0,0,0
3009,2656535,211,0,0,0,0
3010,2657518,212,0,0,0,0
3011,2658465,212,0,0,0,0
3012,2659450,212,0,0,0,0
3013,2660461,213,0,0,0,0
3014,2661430,212,0,0,0,0
3015,2662403,211,0,0,0,0
3016,2663399,212,0,0,0,0
3017,2664384,213,0,0,0,0
3018,2665319,213,0,0,0,0
3019,2666285,215,0,0,0,0
3020,2667263,215,0,0,0,0
3021,2668206,215,0,0,0,0
3022,2669120,221,0,0,0,0
3023,2670079,229,0,0,0,0
3024,2671073,207,0,0,0,0
3025,2672052,208,0,0,0,0
3026,2673004,208,0,0,0,0
3027,2673992,203,0,0,0,0
3028,2674964,195,0,0,0,0
3029,2675882,217,0,0,0,0
3030,2676818,215,0,0,0,0
3031,2677721,217,0,0,0,0
3032,2678585,217,0,0,0,0
3033,2679000,210,0,0,0,0
3034,2679381,208,0,0,0,0
3035,2680160,205,0,0,0,0
3036,2680959,197,0,0,0,0
3037,2681680,194,0,0,0,0
3038,2682920,249,0,0,0,0
3039,2683618,308,0,0,0,0
3040,2684087,275,0,0,0,0
3041,2686859,386,0,0,0,0
3042,2687593,295,0,0,0,0
3043,2688320,228,0,0,0,0
3044,2689049,154,0,0,0,0
3045,2689784,195,0,0,0,0
3046,2690536,229,0,0,0,0
3047,2691295,210,0,0,0,0
3048,2692037,212,0,0,0,0
3049,2692791,205,0,0,0,0
3050,2693549,226,0,0,0,0
3051,2694299,191,0,0,0,0
3052,2695051,240,0,0,0,0
3053,2695433,252,0,0,0,0
3054,2695800,258,0,0,0,0
3055,2696559,198,0,0,0,0
3056,2697327,212,0,0,0,0
3057,2698132,197,0,0,0,0
3058,2698961,161,0,0,0,0
3059,2699797,187,0,0,0,0
3060,2700640,219,0,0,0,0
3061,2701451,207,0,0,0,0
3062,2702253,287,0,0,0,0
3063,2703057,330,0,0,0,0
3064,2703708,297,0,0,0,0
3065,2704132,322,0,0,0,0
3066,2704759,359,0,0,0,0
3067,2705301,253,0,0,0,0
3068,2705681,257,0,0,0,0
3069,2706306,325,0,0,0,0
3070,2708865,280,0,0,0,0
3071,2709667,217,0,0,0,0
3072,2710441,238,0,0,0,0
3073,2711215,226,0,0,0,0
3074,2711979,163,0,0,0,0
3075,2712736,172,0,0,0,0
3076,2713482,207,0,0,0,0
3077,2714237,207,0,0,0,0
3078,2715003,204,0,0,0,0
3079,2715767,204,0,0,0,0
3080,2716530,203,0,0,0,0
3081,2717297,196,0,0,0,0
3082,2718074,193,0,0,0,0
3083,2718850,192,0,0,0,0
3084,2719602,190,0,0,0,0
3085,2720354,195,0,0,0,0
3086,2721109,202,0,0,0,0
3087,2721867,289,0,0,0,0
3088,2722464,289,0,0,0,0
3089,2723071,366,0,0,0,0
3090,2723862,427,0,0,0,0
3091,2724555,440,0,0,0,0
3092,2725346,405,0,0,0,0
3093,2725837,367,0,0,0,0
3094,2726201,303,0,0,0,0
3095,2726923,250,0,0,0,0
3096,2727658,242,0,0,0,0
3097,2728388,207,0,0,0,0
3098,2729107,207,0,0,0,0
3099,2729846,210,0,0,0,0
3100,2730582,205,0,0,0,0
3101,2731304,203,0,0,0,0
3102,2732010,272,0,0,0,0
3103,2732517,248,0,0,0,0
3104,2733177,246,0,0,0,0
3105,2734115,285,0,0,0,0
3106,2734846,351,0,0,0,0
3107,2735599,299,0,0,0,0
3108,2736357,364,0,0,0,0
3109,2737153,375,0,0,0,0
3110,2737964,277,0,0,0,0
3111,2738769,116,0,0,0,0
3112,2739602,132,0,0,0,0
3113,2740447,132,0,0,0,0
3114,2741303,127,0,0,0,0
3115,2742116,160,0,0,0,0
3116,2742929,188,0,0,0,0
3117,2743767,175,0,0,0,0
3118,2744663,182,0,0,0,0
3119,2745564,193,0,0,0,0
3120,2746463,192,0,0,0,0
3121,2747380,202,0,0,0,0
3122,2748295,216,0,0,0,0
3123,2749150,219,0,0,0,0
3124,2749987,210,0,0,0,0
3125,2750844,252,0,0,0,0
3126,2751747,240,0,0,0,0
3127,2752624,266,0,0,0,0
3128,2753430,290,0,0,0,0
3129,2754179,242,0,0,0,0
3130,2755088,193,0,0,0,0
3131,2755915,200,0,0,0,0
3132,2756514,180,0,0,0,0
3133,2756959,189,0,0,0,0
3134,2757358,207,0,0,0,0
3135,2757867,266,0,0,0,0
3136,2758235,266,0,0,0,0
3137,2759035,280,0,0,0,0
3138,2761781,243,0,0,0,0
3139,2762383,341,0,0,0,0
3140,2765430,-1,0,0,0,0
3141,2766244,263,0,0,0,0
3142,2767061,243,0,0,0,0
3143,2767879,232,0,0,0,0
3144,2768750,205,0,0,0,0
3145,2769675,205,0,0,0,0
3146,2770624,205,0,0,0,0
3147,2771487,207,0,0,0,0
3148,2772343,208,0,0,0,0
3149,2773243,208,0,0,0,0
3150,2774164,208,0,0,0,0
3151,2775084,208,0,0,0,0
3152,2775998,208,0,0,0,0
3153,2776886,207,0,0,0,0
3154,2777798,206,0,0,0,0
3155,2778742,208,0,0,0,0
3156,2779705,208,0,0,0,0
3157,2780656,208,0,0,0,0
3158,2781572,209,0,0,0,0
3159,2782495,210,0,0,0,0
3160,2783426,209,0,0,0,0
3161,2784365,208,0,0,0,0
3162,2785257,206,0,0,0,0
3163,2786136,206,0,0,0,0
3164,2787032,207,0,0,0,0
3165,2787945,207,0,0,0,0
3166,2788798,189,0,0,0,0
3167,2789662,187,0,0,0,0
3168,2790520,179,0,0,0,0
3169,2791306,181,0,0,0,0
3170,2792085,181,0,0,0,0
3171,2792889,197,0,0,0,0
3172,2793741,197,0,0,0,0
3173,2794667,203,0,0,0,0
3174,2795556,200,0,0,0,0
3175,2796415,205,0,0,0,0
3176,2797279,222,0,0,0,0
3177,2798147,189,0,0,0,0
3178,2799006,196,0,0,0,0
3179,2799828,190,0,0,0,0
3180,2800640,187,0,0,0,0
3181,2801464,175,0,0,0,0
3182,2802332,190,0,0,0,0
3183,2803238,185,0,0,0,0
3184,2804128,202,0,0,0,0
3185,2805058,175,0,0,0,0
3186,2805976,175,0,0,0,0
3187,2806845,194,0,0,0,0
3188,2807744,190,0,0,0,0
3189,2808674,174,0,0,0,0
3190,2809572,207,0,0,0,0
3191,2810440,200,0,0,0,0
3192,2811355,203,0,0,0,0
3193,2812287,205,0,0,0,0
3194,2813239,215,0,0,0,0
3195,2814132,209,0,0,0,0
3196,2815015,178,0,0,0,0
3197,2815903,172,0,0,0,0
3198,2816805,170,0,0,0,0
3199,2817674,172,0,0,0,0
3200,2818545,178,0,0,0,0
3201,2819464,207,0,0,0,0
3202,2820419,216,0,0,0,0
3203,2821331,217,0,0,0,0
3204,2822235,208,0,0,0,0
3205,2823172,208,0,0,0,0
3206,2824126,210,0,0,0,0
3207,2825038,208,0,0,0,0
3208,2825975,206,0,0,0,0
3209,2826880,208,0,0,0,0
3210,2827719,206,0,0,0,0
3211,2828562,207,0,0,0,0
3212,2829464,205,0,0,0,0
3213,2830425,207,0,0,0,0
3214,2831383,213,0,0,0,0
3215,2832318,182,0,0,0,0
3216,2833248,184,0,0,0,0
3217,2834111,187,0,0,0,0
3218,2835003,185,0,0,0,0
3219,2835953,180,0,0,0,0
3220,2836932,211,0,0,0,0
3221,2837858,208,0,0,0,0
3222,2838781,210,0,0,0,0
3223,2839752,201,0,0,0,0
3224,2840756,203,0,0,0,0
3225,2841721,205,0,0,0,0
3226,2842725,199,0,0,0,0
3227,2843772,200,0,0,0,0
3228,2844800,212,0,0,0,0
3229,2845767,212,0,0,0,0
3230,2846781,210,0,0,0,0
3231,2847844,216,0,0,0,0
3232,2848864,213,0,0,0,0
3233,2849899,213,0,0,0,0
3234,2850958,211,0,0,0,0
3235,2852016,214,0,0,0,0
3236,2853021,216,0,0,0,0
3237,2854053,216,0,0,0,0
3238,2855095,214,0,0,0,0
3239,2856089,215,0,0,0,0
3240,2857052,213,0,0,0,0
3241,2858064,211,0,0,0,0
3242,2859102,210,0,0,0,0
3243,2860115,287,0,0,0,0
3244,2861101,282,0,0,0,0
3245,2862110,282,0,0,0,0
3246,2863133,267,0,0,0,0
3247,2864143,272,0,0,0,0
3248,2865100,190,0,0,0,0
3249,2866088,194,0,0,0,0
3250,2867083,194,0,0,0,0
3251,2868024,180,0,0,0,0
3252,2868951,176,0,0,0,0
3253,2869923,183,0,0,0,0
3254,2870945,181,0,0,0,0
3255,2871910,181,0,0,0,0
3256,2872884,209,0,0,0,0
3257,2873886,208,0,0,0,0
3258,2874909,210,0,0,0,0
3259,2875884,193,0,0,0,0
3260,2876876,195,0,0,0,0
3261,2877877,194,0,0,0,0
3262,2878845,175,0,0,0,0
3263,2879776,174,0,0,0,0
3264,2880734,194,0,0,0,0
3265,2881728,194,0,0,0,0
3266,2882687,195,0,0,0,0
3267,2883605,213,0,0,0,0
3268,2884537,213,0,0,0,0
3269,2885496,211,0,0,0,0
3270,2886486,209,0,0,0,0
3271,2887471,202,0,0,0,0
3272,2888448,206,0,0,0,0
3273,2889401,293,0,0,0,0
3274,2890312,258,0,0,0,0
3275,2891150,251,0,0,0,0
3276,2891960,256,0,0,0,0
3277,2892779,251,0,0,0,0
3278,2893641,182,0,0,0,0
3279,2894563,210,0,0,0,0
3280,2895498,210,0,0,0,0
3281,2896364,211,0,0,0,0
3282,2897180,214,0,0,0,0
3283,2898006,215,0,0,0,0
3284,2898876,215,0,0,0,0
3285,2899840,213,0,0,0,0
3286,2900764,214,0,0,0,0
3287,2901762,210,0,0,0,0
3288,2902791,209,0,0,0,0
3289,2903820,215,0,0,0,0
3290,2904823,246,0,0,0,0
3291,2905791,251,0,0,0,0
3292,2906685,250,0,0,0,0
3293,2907508,249,0,0,0,0
3294,2908345,244,0,0,0,0
3295,2909240,213,0,0,0,0
3296,2910213,207,0,0,0,0
3297,2911180,214,0,0,0,0
3298,2912113,217,0,0,0,0
3299,2913074,215,0,0,0,0
3300,2914072,202,0,0,0,0
3301,2915089,204,0,0,0,0
3302,2916058,201,0,0,0,0
3303,2917070,196,0,0,0,0
3304,2918119,192,0,0,0,0
3305,2919165,285,0,0,0,0
3306,2920126,284,0,0,0,0
3307,2921090,223,0,0,0,0
3308,2922102,222,0,0,0,0
3309,2923132,221,0,0,0,0
3310,2924107,180,0,0,0,0
3311,2925064,178,0,0,0,0
3312,2926054,215,0,0,0,0
3313,2927069,214,0,0,0,0
3314,2928071,218,0,0,0,0
3315,2929022,218,0,0,0,0
3316,2930019,218,0,0,0,0
3317,2931048,217,0,0,0,0
3318,2932068,228,0,0,0,0
3319,2933071,187,0,0,0,0
3320,2934047,208,0,0,0,0
3321,2934996,208,0,0,0,0
3322,2935951,178,0,0,0,0
3323,2936890,187,0,0,0,0
3324,2939680,205,0,0,0,0
3325,2940586,195,0,0,0,0
3326,2941465,197,0,0,0,0
3327,2942360,230,0,0,0,0
3328,2943266,207,0,0,0,0
3329,2944202,218,0,0,0,0
3330,2945097,226,0,0,0,0
3331,2946005,228,0,0,0,0
3332,2946978,227,0,0,0,0
3333,2948006,228,0,0,0,0
3334,2949062,219,0,0,0,0
3335,2950053,217,0,0,0,0
3336,2951044,218,0,0,0,0
3337,2952073,219,0,0,0,0
3338,2953104,220,0,0,0,0
3339,2954128,219,0,0,0,0
3340,2955151,218,0,0,0,0
3341,2956185,217,0,0,0,0
3342,2957250,218,0,0,0,0
3343,2958273,219,0,0,0,0
3344,2959284,220,0,0,0,0
3345,2960353,221,0,0,0,0
3346,2961391,221,0,0,0,0
3347,2962372,220,0,0,0,0
3348,2963387,218,0,0,0,0
3349,2964421,217,0,0,0,0
3350,2965444,215,0,0,0,0
3351,2966420,215,0,0,0,0
3352,2967440,215,0,0,0,0
3353,2968476,214,0,0,0,0
3354,2969538,212,0,0,0,0
3355,2970528,212,0,0,0,0
3356,2971528,212,0,0,0,0
3357,2972586,211,0,0,0,0
3358,2973592,214,0,0,0,0
3359,2974549,215,0,0,0,0
3360,2975537,215,0,0,0,0
3361,2976547,215,0,0,0,0
3362,2977511,216,0,0,0,0
3363,2978467,214,0,0,0,0
3364,2979477,213,0,0,0,0
3365,2980478,212,0,0,0,0
3366,2981423,213,0,0,0,0
3367,2982364,212,0,0,0,0
3368,2983329,211,0,0,0,0
3369,2984278,213,0,0,0,0
3370,2985188,183,0,0,0,0
3371,2986097,184,0,0,0,0
3372,2987058,186,0,0,0,0
3373,2988066,190,0,0,0,0
3374,2989081,188,0,0,0,0
3375,2990060,219,0,0,0,0
3376,2991075,217,0,0,0,0
3377,2992093,215,0,0,0,0
3378,2993088,215,0,0,0,0
3379,2994060,217,0,0,0,0
3380,2995054,217,0,0,0,0
3381,2996058,218,0,0,0,0
3382,2997047,219,0,0,0,0
3383,2998025,217,0,0,0,0
3384,2999039,216,0,0,0,0
3385,3000064,216,0,0,0,0
3386,3001062,216,0,0,0,0
3387,3002064,217,0,0,0,0
3388,3003085,217,0,0,0,0
3389,3004139,217,0,0,0,0
3390,3005137,219,0,0,0,0
3391,3006113,217,0,0,0,0
3392,3007140,203,0,0,0,0
3393,3008162,207,0,0,0,0
3394,3009099,209,0,0,0,0
3395,3010040,208,0,0,0,0
3396,3011020,208,0,0,0,0
3397,3012018,221,0,0,0,0
3398,3012975,219,0,0,0,0
3399,3013961,217,0,0,0,0
3400,3015016,217,0,0,0,0
3401,3016062,218,0,0,0,0
3402,3017034,218,0,0,0,0
3403,3017997,217,0,0,0,0
3404,3018993,219,0,0,0,0
3405,3019963,218,0,0,0,0
3406,3020892,220,0,0,0,0
3407,3021870,222,0,0,0,0
3408,3022869,222,0,0,0,0
3409,3023819,221,0,0,0,0
3410,3024771,219,0,0,0,0
3411,3025773,217,0,0,0,0
3412,3026825,215,0,0,0,0
3413,3027816,218,0,0,0,0
3414,3028800,219,0,0,0,0
3415,3029832,225,0,0,0,0
3416,3030829,225,0,0,0,0
3417,3031775,226,0,0,0,0
3418,3032760,224,0,0,0,0
3419,3033778,223,0,0,0,0
3420,3034773,220,0,0,0,0
3421,3035736,220,0,0,0,0
3422,3036759,218,0,0,0,0
3423,3037851,218,0,0,0,0
3424,3038869,218,0,0,0,0
3425,3039838,218,0,0,0,0
3426,3040859,217,0,0,0,0
3427,3041879,218,0,0,0,0
3428,3042846,218,0,0,0,0
3429,3043812,218,0,0,0,0
3430,3044839,216,0,0,0,0
3431,3045880,217,0,0,0,0
3432,3046847,219,0,0,0,0
3433,3047827,212,0,0,0,0
3434,3048823,212,0,0,0,0
3435,3049771,215,0,0,0,0
3436,3050734,214,0,0,0,0
3437,3051732,211,0,0,0,0
3438,3052742,218,0,0,0,0
3439,3053699,220,0,0,0,0
3440,3054682,219,0,0,0,0
3441,3055706,217,0,0,0,0
3442,3056716,219,0,0,0,0
3443,3057673,220,0,0,0,0
3444,3058665,219,0,0,0,0
3445,3059732,217,0,0,0,0
3446,3060727,219,0,0,0,0
3447,3061688,219,0,0,0,0
3448,3062701,218,0,0,0,0
3449,3063731,216,0,0,0,0
3450,3064671,218,0,0,0,0
3451,3065635,215,0,0,0,0
3452,3066620,212,0,0,0,0
3453,3067561,213,0,0,0,0
3454,3068420,213,0,0,0,0
3455,3069273,211,0,0,0,0
3456,3070119,212,0,0,0,0
3457,3070974,211,0,0,0,0
3458,3071813,209,0,0,0,0
3459,3072620,208,0,0,0,0
3460,3073424,208,0,0,0,0
3461,3074259,206,0,0,0,0
3462,3075157,207,0,0,0,0
3463,3076098,207,0,0,0,0
3464,3076986,207,0,0,0,0
3465,3077875,205,0,0,0,0
3466,3078789,206,0,0,0,0
3467,3079731,205,0,0,0,0
3468,3080678,205,0,0,0,0
3469,3081591,209,0,0,0,0
3470,3082514,209,0,0,0,0
3471,3083469,212,0,0,0,0
3472,3084452,213,0,0,0,0
3473,3085426,216,0,0,0,0
3474,3086358,214,0,0,0,0
3475,3087289,214,0,0,0,0
3476,3088200,213,0,0,0,0
3477,3089091,214,0,0,0,0
3478,3089925,214,0,0,0,0
3479,3090767,232,0,0,0,0
3480,3091606,240,0,0,0,0
3481,3092449,247,0,0,0,0
3482,3093281,245,0,0,0,0
3483,3094133,241,0,0,0,0
3484,3095018,217,0,0,0,0
3485,3095914,206,0,0,0,0
3486,3096760,208,0,0,0,0
3487,3097569,207,0,0,0,0
3488,3098411,208,0,0,0,0
3489,3099290,208,0,0,0,0
3490,3100220,238,0,0,0,0
3491,3101139,242,0,0,0,0
3492,3102044,253,0,0,0,0
3493,3102982,254,0,0,0,0
3494,3103945,278,0,0,0,0
3495,3104872,262,0,0,0,0
3496,3105780,258,0,0,0,0
3497,3106749,249,0,0,0,0
3498,3107735,251,0,0,0,0
3499,3108712,230,0,0,0,0
3500,3109633,210,0,0,0,0
3501,3110556,206,0,0,0,0
3502,3111490,193,0,0,0,0
3503,3112405,188,0,0,0,0
3504,3113267,188,0,0,0,0
3505,3114121,205,0,0,0,0
3506,3115003,205,0,0,0,0
3507,3115938,219,0,0,0,0
3508,3116890,223,0,0,0,0
3509,3117815,221,0,0,0,0
3510,3118760,215,0,0,0,0
3511,3119698,218,0,0,0,0
3512,3120636,219,0,0,0,0
3513,3121545,216,0,0,0,0
3514,3122390,221,0,0,0,0
3515,3123272,195,0,0,0,0
3516,3124292,200,0,0,0,0
3517,3125270,202,0,0,0,0
3518,3126308,224,0,0,0,0
3519,3127365,239,0,0,0,0
3520,3128357,226,0,0,0,0
3521,3129338,222,0,0,0,0
3522,3130329,224,0,0,0,0
3523,3131315,200,0,0,0,0
3524,3132328,182,0,0,0,0
3525,3133331,219,0,0,0,0
3526,3134332,218,0,0,0,0
3527,3135337,213,0,0,0,0
3528,3136335,217,0,0,0,0
3529,3137266,217,0,0,0,0
3530,3138185,218,0,0,0,0
3531,3139100,218,0,0,0,0
3532,3140053,221,0,0,0,0
3533,3140976,205,0,0,0,0
3534,3141951,204,0,0,0,0
3535,3142951,199,0,0,0,0
3536,3143958,202,0,0,0,0
3537,3144934,184,0,0,0,0
3538,3145939,200,0,0,0,0
3539,3146953,201,0,0,0,0
3540,3147939,195,0,0,0,0
3541,3148925,193,0,0,0,0
3542,3149928,208,0,0,0,0
3543,3150801,202,0,0,0,0
3544,3151691,201,0,0,0,0
3545,3152607,209,0,0,0,0
3546,3153508,208,0,0,0,0
3547,3154398,207,0,0,0,0
3548,3155346,212,0,0,0,0
3549,3156307,213,0,0,0,0
3550,3157253,214,0,0,0,0
3551,3158151,215,0,0,0,0
3552,3159075,216,0,0,0,0
3553,3160043,214,0,0,0,0
3554,3161002,214,0,0,0,0
3555,3161883,197,0,0,0,0
3556,3162674,273,0,0,0,0
3557,3163527,262,0,0,0,0
3558,3164415,275,0,0,0,0
3559,3165339,270,0,0,0,0
3560,3166292,289,0,0,0,0
3561,3167250,213,0,0,0,0
3562,3168203,223,0,0,0,0
3563,3169150,214,0,0,0,0
3564,3170081,222,0,0,0,0
3565,3170972,220,0,0,0,0
3566,3171833,219,0,0,0,0
3567,3172732,222,0,0,0,0
3568,3173697,223,0,0,0,0
3569,3174695,220,0,0,0,0
3570,3175720,222,0,0,0,0
3571,3176708,225,0,0,0,0
3572,3177710,224,0,0,0,0
3573,3178717,224,0,0,0,0
3574,3179719,223,0,0,0,0
3575,3180692,222,0,0,0,0
3576,3181660,222,0,0,0,0
3577,3182589,223,0,0,0,0
3578,3183467,225,0,0,0,0
3579,3184384,225,0,0,0,0
3580,3185354,223,0,0,0,0
3581,3186359,222,0,0,0,0
3582,3187379,222,0,0,0,0
3583,3188392,222,0,0,0,0
3584,3189382,221,0,0,0,0
3585,3190369,222,0,0,0,0
3586,3191368,222,0,0,0,0
3587,3192380,220,0,0,0,0
3588,3193401,221,0,0,0,0
3589,3194333,221,0,0,0,0
3590,3195286,254,0,0,0,0
3591,3196418,259,0,0,0,0
3592,3196990,272,0,0,0,0
3593,3197459,253,0,0,0,0
3594,3198041,217,0,0,0,0
3595,3198527,212,0,0,0,0
3596,3199177,250,0,0,0,0
3597,3201629,176,0,0,0,0
3598,3202349,259,0,0,0,0
3599,3203071,304,0,0,0,0
3600,3203795,271,0,0,0,0
3601,3204153,216,0,0,0,0
3602,3204517,212,0,0,0,0
3603,3205237,262,0,0,0,0
3604,3205949,272,0,0,0,0
3605,3206659,234,0,0,0,0
3606,3207360,234,0,0,0,0
3607,3208061,186,0,0,0,0
3608,3208764,136,0,0,0,0
3609,3209461,121,0,0,0,0
3610,3210183,154,0,0,0,0
3611,3210941,145,0,0,0,0
3612,3211767,187,0,0,0,0
3613,3212598,188,0,0,0,0
3614,3213522,191,0,0,0,0
3615,3214531,192,0,0,0,0
3616,3215602,214,0,0,0,0
3617,3216661,214,0,0,0,0
3618,3217646,211,0,0,0,0
3619,3218657,210,0,0,0,0
3620,3219658,210,0,0,0,0
3621,3220594,215,0,0,0,0
3622,3221474,216,0,0,0,0
3623,3222347,216,0,0,0,0
3624,3223237,217,0,0,0,0
3625,3224113,215,0,0,0,0
3626,3224988,205,0,0,0,0
3627,3225902,206,0,0,0,0
3628,3226792,265,0,0,0,0
3629,3227656,273,0,0,0,0
3630,3228531,279,0,0,0,0
3631,3229389,281,0,0,0,0
3632,3230232,281,0,0,0,0
3633,3231107,206,0,0,0,0
3634,3231982,194,0,0,0,0
3635,3232851,238,0,0,0,0
3636,3233740,284,0,0,0,0
3637,3234642,276,0,0,0,0
3638,3235545,315,0,0,0,0
3639,3236440,262,0,0,0,0
3640,3237298,226,0,0,0,0
3641,3238159,192,0,0,0,0
3642,3239017,201,0,0,0,0
3643,3239879,189,0,0,0,0
3644,3240724,222,0,0,0,0
3645,3241527,220,0,0,0,0
3646,3242349,220,0,0,0,0
3647,3243214,219,0,0,0,0
3648,3244067,217,0,0,0,0
3649,3244945,215,0,0,0,0
3650,3245856,213,0,0,0,0
3651,3246784,211,0,0,0,0
3652,3247684,204,0,0,0,0
3653,3248588,204,0,0,0,0
3654,3249520,204,0,0,0,0
3655,3250429,205,0,0,0,0
3656,3251382,208,0,0,0,0
3657,3252317,216,0,0,0,0
3658,3253250,219,0,0,0,0
3659,3254164,221,0,0,0,0
3660,3255046,213,0,0,0,0
3661,3255893,212,0,0,0,0
3662,3256741,229,0,0,0,0
3663,3257610,247,0,0,0,0
3664,3258505,241,0,0,0,0
3665,3259406,256,0,0,0,0
3666,3260310,254,0,0,0,0
3667,3261234,232,0,0,0,0
3668,3262138,213,0,0,0,0
3669,3263008,217,0,0,0,0
3670,3263878,202,0,0,0,0
3671,3264718,200,0,0,0,0
3672,3265568,226,0,0,0,0
3673,3266448,286,0,0,0,0
3674,3267335,344,0,0,0,0
3675,3268220,370,0,0,0,0
3676,3268559,393,0,0,0,0
3677,3269082,370,0,0,0,0
3678,3269596,311,0,0,0,0
3679,3269922,267,0,0,0,0
3680,3270336,256,0,0,0,0
3681,3270725,251,0,0,0,0
3682,3271491,263,0,0,0,0
3683,3272267,255,0,0,0,0
3684,3273059,273,0,0,0,0
3685,3273863,246,0,0,0,0
3686,3274519,281,0,0,0,0
3687,3275196,250,0,0,0,0
3688,3275513,286,0,0,0,0
3689,3276242,272,0,0,0,0
3690,3277083,368,0,0,0,0
3691,3277605,332,0,0,0,0
3692,3277945,349,0,0,0,0
3693,3278959,256,0,0,0,0
3694,3279622,265,0,0,0,0
3695,3281213,178,0,0,0,0
3696,3282180,178,0,0,0,0
3697,3282761,192,0,0,0,0
3698,3283603,235,0,0,0,0
3699,3284441,106,0,0,0,0
3700,3285300,61,0,0,0,0
3701,3286168,107,0,0,0,0
3702,3287040,136,0,0,0,0
3703,3287925,152,0,0,0,0
3704,3288807,186,0,0,0,0
3705,3289671,211,0,0,0,0
3706,3290543,212,0,0,0,0
3707,3291432,209,0,0,0,0
3708,3292347,207,0,0,0,0
3709,3293261,208,0,0,0,0
3710,3294189,207,0,0,0,0
3711,3295110,196,0,0,0,0
3712,3296024,195,0,0,0,0
3713,3296923,160,0,0,0,0
3714,3297796,160,0,0,0,0
3715,3298642,161,0,0,0,0
3716,3299330,199,0,0,0,0
3717,3300105,235,0,0,0,0
3718,3301110,271,0,0,0,0
3719,3301948,270,0,0,0,0
3720,3302785,267,0,0,0,0
3721,3303678,239,0,0,0,0
3722,3304602,204,0,0,0,0
3723,3305567,205,0,0,0,0
3724,3306520,204,0,0,0,0
3725,3307452,205,0,0,0,0
3726,3308391,214,0,0,0,0
3727,3309341,208,0,0,0,0
3728,3310283,208,0,0,0,0
3729,3311205,208,0,0,0,0
3730,3312132,221,0,0,0,0
3731,3313054,212,0,0,0,0
3732,3313947,218,0,0,0,0
3733,3314903,218,0,0,0,0
3734,3315942,193,0,0,0,0
3735,3316993,187,0,0,0,0
3736,3317973,147,0,0,0,0
3737,3318977,134,0,0,0,0
3738,3319981,133,0,0,0,0
3739,3320932,163,0,0,0,0
3740,3321864,159,0,0,0,0
3741,3322828,188,0,0,0,0
3742,3323845,202,0,0,0,0
3743,3324884,204,0,0,0,0
3744,3325927,203,0,0,0,0
3745,3326972,205,0,0,0,0
3746,3327989,218,0,0,0,0
3747,3329018,219,0,0,0,0
3748,3330018,218,0,0,0,0
3749,3331048,217,0,0,0,0
3750,3332082,218,0,0,0,0
3751,3333102,218,0,0,0,0
3752,3334130,218,0,0,0,0
3753,3335160,218,0,0,0,0
3754,3336193,217,0,0,0,0
3755,3337199,217,0,0,0,0
3756,3338200,216,0,0,0,0
3757,3339220,216,0,0,0,0
3758,3340261,215,0,0,0,0
3759,3341319,215,0,0,0,0
3760,3342349,215,0,0,0,0
3761,3343314,217,0,0,0,0
3762,3344238,213,0,0,0,0
3763,3345172,208,0,0,0,0
3764,3346153,209,0,0,0,0
3765,3347170,209,0,0,0,0
3766,3348191,209,0,0,0,0
3767,3349147,214,0,0,0,0
3768,3350138,220,0,0,0,0
3769,3351150,221,0,0,0,0
3770,3352178,222,0,0,0,0
3771,3353137,221,0,0,0,0
3772,3354127,219,0,0,0,0
3773,3355144,218,0,0,0,0
3774,3356188,217,0,0,0,0
3775,3357240,216,0,0,0,0
3776,3358282,217,0,0,0,0
3777,3359304,219,0,0,0,0
3778,3360278,223,0,0,0,0
3779,3361171,223,0,0,0,0
3780,3362079,223,0,0,0,0
3781,3362991,221,0,0,0,0
3782,3363941,220,0,0,0,0
3783,3364917,216,0,0,0,0
3784,3365898,215,0,0,0,0
3785,3366871,217,0,0,0,0
3786,3367780,221,0,0,0,0
3787,3368683,222,0,0,0,0
3788,3369576,224,0,0,0,0
3789,3370442,225,0,0,0,0
3790,3371344,223,0,0,0,0
3791,3372327,219,0,0,0,0
3792,3373394,218,0,0,0,0
3793,3374414,217,0,0,0,0
3794,3375452,216,0,0,0,0
3795,3376475,217,0,0,0,0
3796,3377468,223,0,0,0,0
3797,3378370,292,0,0,0,0
3798,3379243,262,0,0,0,0
3799,3380089,266,0,0,0,0
3800,3380968,266,0,0,0,0
3801,3381878,261,0,0,0,0
3802,3382837,202,0,0,0,0
3803,3383779,233,0,0,0,0
3804,3384733,231,0,0,0,0
3805,3385668,231,0,0,0,0
3806,3386575,232,0,0,0,0
3807,3387444,221,0,0,0,0
3808,3388312,219,0,0,0,0
3809,3389183,211,0,0,0,0
3810,3390116,191,0,0,0,0
3811,3390996,189,0,0,0,0
3812,3391884,190,0,0,0,0
3813,3392761,188,0,0,0,0
3814,3393664,192,0,0,0,0
3815,3394614,209,0,0,0,0
3816,3395572,211,0,0,0,0
3817,3396525,209,0,0,0,0
3818,3397448,207,0,0,0,0
3819,3398352,192,0,0,0,0
3820,3399214,190,0,0,0,0
3821,3400067,190,0,0,0,0
3822,3400883,191,0,0,0,0
3823,3401700,194,0,0,0,0
3824,3402570,212,0,0,0,0
3825,3403526,210,0,0,0,0
3826,3404453,207,0,0,0,0
3827,3405416,206,0,0,0,0
3828,3406461,205,0,0,0,0
3829,3407547,204,0,0,0,0
3830,3408625,204,0,0,0,0
3831,3409666,205,0,0,0,0
3832,3410686,204,0,0,0,0
3833,3411668,205,0,0,0,0
3834,3412599,206,0,0,0,0
3835,3413502,206,0,0,0,0
3836,3414399,206,0,0,0,0
3837,3415277,207,0,0,0,0
3838,3416217,207,0,0,0,0
3839,3417265,205,0,0,0,0
3840,3418397,205,0,0,0,0
3841,3419534,204,0,0,0,0
3842,3420640,204,0,0,0,0
3843,3421712,204,0,0,0,0
3844,3422740,205,0,0,0,0
3845,3423727,205,0,0,0,0
3846,3424628,207,0,0,0,0
3847,3425492,209,0,0,0,0
3848,3426369,209,0,0,0,0
3849,3427298,209,0,0,0,0
3850,3428237,211,0,0,0,0
3851,3429178,209,0,0,0,0
3852,3430054,209,0,0,0,0
3853,3430900,210,0,0,0,0
3854,3431753,209,0,0,0,0
3855,3432656,208,0,0,0,0
3856,3433626,207,0,0,0,0
3857,3434514,208,0,0,0,0
3858,3435385,208,0,0,0,0
3859,3436292,209,0,0,0,0
3860,3437181,209,0,0,0,0
3861,3438032,210,0,0,0,0
3862,3438907,207,0,0,0,0
3863,3439826,206,0,0,0,0
3864,3440744,208,0,0,0,0
3865,3441641,209,0,0,0,0
3866,3442504,210,0,0,0,0
3867,3443339,211,0,0,0,0
3868,3444188,211,0,0,0,0
3869,3445080,209,0,0,0,0
3870,3445931,208,0,0,0,0
3871,3446846,206,0,0,0,0
3872,3447812,207,0,0,0,0
3873,3448759,208,0,0,0,0
3874,3449711,208,0,0,0,0
3875,3450667,209,0,0,0,0
3876,3451648,209,0,0,0,0
3877,3452656,207,0,0,0,0
3878,3453692,205,0,0,0,0
3879,3454750,206,0,0,0,0
3880,3455812,205,0,0,0,0
3881,3456894,205,0,0,0,0
3882,3457985,206,0,0,0,0
3883,3459056,208,0,0,0,0
3884,3460101,208,0,0,0,0
3885,3461066,208,0,0,0,0
3886,3461993,210,0,0,0,0
3887,3462890,212,0,0,0,0
3888,3463794,211,0,0,0,0
3889,3464723,211,0,0,0,0
3890,3465650,211,0,0,0,0
3891,3466515,211,0,0,0,0
3892,3467347,209,0,0,0,0
3893,3468153,210,0,0,0,0
3894,3468963,210,0,0,0,0
3895,3469829,210,0,0,0,0
3896,3470686,208,0,0,0,0
3897,3471497,207,0,0,0,0
3898,3472304,206,0,0,0,0
3899,3473118,206,0,0,0,0
3900,3474006,205,0,0,0,0
3901,3474922,206,0,0,0,0
3902,3475825,205,0,0,0,0
3903,3476670,208,0,0,0,0
3904,3477500,207,0,0,0,0
3905,3477889,208,0,0,0,0
3906,3478352,212,0,0,0,0
3907,3479215,213,0,0,0,0
3908,3480098,209,0,0,0,0
3909,3481002,210,0,0,0,0
3910,3481917,210,0,0,0,0
3911,3482863,208,0,0,0,0
3912,3483807,209,0,0,0,0
3913,3484779,211,0,0,0,0
3914,3485756,211,0,0,0,0
3915,3486725,212,0,0,0,0
3916,3487723,212,0,0,0,0
3917,3488739,212,0,0,0,0
3918,3489778,211,0,0,0,0
3919,3490766,212,0,0,0,0
3920,3491736,212,0,0,0,0
3921,3492740,212,0,0,0,0
3922,3493754,213,0,0,0,0
3923,3494704,213,0,0,0,0
3924,3495685,213,0,0,0,0
3925,3496680,213,0,0,0,0
3926,3497699,213,0,0,0,0
3927,3498653,215,0,0,0,0
3928,3499574,215,0,0,0,0
3929,3500528,215,0,0,0,0
3930,3501502,215,0,0,0,0
3931,3502514,214,0,0,0,0
3932,3503517,213,0,0,0,0
3933,3504453,214,0,0,0,0
3934,3505424,215,0,0,0,0
3935,3506407,214,0,0,0,0
3936,3507402,216,0,0,0,0
3937,3508339,217,0,0,0,0
3938,3509307,215,0,0,0,0
3939,3510294,216,0,0,0,0
3940,3511274,217,0,0,0,0
3941,3512182,218,0,0,0,0
3942,3513051,218,0,0,0,0
3943,3513976,218,0,0,0,0
3944,3514974,217,0,0,0,0
3945,3515986,217,0,0,0,0
3946,3516986,208,0,0,0,0
3947,3517938,212,0,0,0,0
3948,3518886,212,0,0,0,0
3949,3519824,213,0,0,0,0
3950,3520779,214,0,0,0,0
3951,3521747,221,0,0,0,0
3952,3522680,217,0,0,0,0
3953,3523633,217,0,0,0,0
3954,3524633,217,0,0,0,0
3955,3525649,216,0,0,0,0
3956,3526637,217,0,0,0,0
3957,3527595,216,0,0,0,0
3958,3528552,217,0,0,0,0
3959,3529442,218,0,0,0,0
3960,3530294,217,0,0,0,0
3961,3531199,217,0,0,0,0
3962,3532177,217,0,0,0,0
3963,3533124,216,0,0,0,0
3964,3534108,216,0,0,0,0
3965,3535106,214,0,0,0,0
3966,3536057,214,0,0,0,0
3967,3537021,214,0,0,0,0
3968,3537997,214,0,0,0,0
3969,3538983,214,0,0,0,0
3970,3539918,216,0,0,0,0
3971,3540891,215,0,0,0,0
3972,3541863,216,0,0,0,0
3973,3542800,216,0,0,0,0
3974,3543687,216,0,0,0,0
3975,3544564,216,0,0,0,0
3976,3545424,215,0,0,0,0
3977,3546360,214,0,0,0,0
3978,3547354,212,0,0,0,0
3979,3548276,212,0,0,0,0
3980,3549134,210,0,0,0,0
3981,3550028,210,0,0,0,0
3982,3550947,211,0,0,0,0
3983,3551855,212,0,0,0,0
3984,3552698,212,0,0,0,0
3985,3553509,213,0,0,0,0
3986,3554346,213,0,0,0,0
3987,3555211,213,0,0,0,0
3988,3556094,213,0,0,0,0
3989,3556955,213,0,0,0,0
3990,3557781,215,0,0,0,0
3991,3558591,216,0,0,0,0
3992,3559422,216,0,0,0,0
3993,3560284,217,0,0,0,0
3994,3561177,216,0,0,0,0
3995,3562096,213,0,0,0,0
3996,3563022,213,0,0,0,0
3997,3563918,216,0,0,0,0
3998,3564810,216,0,0,0,0
3999,3565758,216,0,0,0,0
4000,3566735,217,0,0,0,0
4001,3567686,217,0,0,0,0
4002,3568655,214,0,0,0,0
4003,3569666,213,0,0,0,0
4004,3570702,213,0,0,0,0
4005,3571759,213,0,0,0,0
4006,3572787,213,0,0,0,0
4007,3573785,213,0,0,0,0
4008,3574791,213,0,0,0,0
4009,3575796,213,0,0,0,0
4010,3576789,215,0,0,0,0
4011,3577703,214,0,0,0,0
4012,3578589,215,0,0,0,0
4013,3579485,216,0,0,0,0
4014,3580471,213,0,0,0,0
4015,3581477,214,0,0,0,0
4016,3582486,213,0,0,0,0
4017,3583445,211,0,0,0,0
4018,3584419,210,0,0,0,0
4019,3585400,213,0,0,0,0
4020,3586376,211,0,0,0,0
4021,3587266,214,0,0,0,0
4022,3588145,216,0,0,0,0
4023,3589058,217,0,0,0,0
4024,3589955,218,0,0,0,0
4025,3590884,216,0,0,0,0
4026,3591869,213,0,0,0,0
4027,3592853,212,0,0,0,0
4028,3593820,213,0,0,0,0
4029,3594800,212,0,0,0,0
4030,3595819,212,0,0,0,0
4031,3596868,213,0,0,0,0
4032,3597863,214,0,0,0,0
4033,3598873,211,0,0,0,0
4034,3599922,212,0,0,0,0
4035,3600988,211,0,0,0,0
4036,3602026,212,0,0,0,0
4037,3603058,210,0,0,0,0
4038,3604068,210,0,0,0,0
4039,3605058,210,0,0,0,0
4040,3605980,211,0,0,0,0
4041,3606870,210,0,0,0,0
4042,3607816,210,0,0,0,0
4043,3608825,210,0,0,0,0
4044,3609809,209,0,0,0,0
4045,3610777,209,0,0,0,0
4046,3611770,209,0,0,0,0
4047,3612785,209,0,0,0,0
4048,3613753,210,0,0,0,0
4049,3614726,210,0,0,0,0
4050,3615723,208,0,0,0,0
4051,3616732,209,0,0,0,0
4052,3617700,211,0,0,0,0
4053,3618696,210,0,0,0,0
4054,3619722,210,0,0,0,0
4055,3620752,212,0,0,0,0
4056,3621726,212,0,0,0,0
4057,3622727,206,0,0,0,0
4058,3623719,206,0,0,0,0
4059,3624659,211,0,0,0,0
4060,3625575,221,0,0,0,0
4061,3626524,225,0,0,0,0
4062,3627439,233,0,0,0,0
4063,3628319,233,0,0,0,0
4064,3629243,228,0,0,0,0
4065,3630228,219,0,0,0,0
4066,3631204,218,0,0,0,0
4067,3632123,189,0,0,0,0
4068,3633049,186,0,0,0,0
4069,3633969,187,0,0,0,0
4070,3634855,199,0,0,0,0
4071,3635751,190,0,0,0,0
4072,3636672,219,0,0,0,0
4073,3637638,218,0,0,0,0
4074,3638576,220,0,0,0,0
4075,3639491,208,0,0,0,0
4076,3640456,216,0,0,0,0
4077,3641462,216,0,0,0,0
4078,3642487,220,0,0,0,0
4079,3643450,218,0,0,0,0
4080,3644414,218,0,0,0,0
4081,3645396,221,0,0,0,0
4082,3646386,223,0,0,0,0
4083,3647333,223,0,0,0,0
4084,3648181,225,0,0,0,0
4085,3648978,229,0,0,0,0
4086,3649830,225,0,0,0,0
4087,3650736,223,0,0,0,0
4088,3651661,221,0,0,0,0
4089,3652591,219,0,0,0,0
4090,3653484,219,0,0,0,0
4091,3654370,223,0,0,0,0
4092,3655278,224,0,0,0,0
4093,3656176,225,0,0,0,0
4094,3657047,224,0,0,0,0
4095,3657877,223,0,0,0,0
4096,3658707,219,0,0,0,0
4097,3659565,219,0,0,0,0
4098,3660452,216,0,0,0,0
4099,3661354,218,0,0,0,0
4100,3662267,219,0,0,0,0
4101,3663165,216,0,0,0,0
4102,3664069,216,0,0,0,0
4103,3664972,215,0,0,0,0
4104,3665886,214,0,0,0,0
4105,3666809,213,0,0,0,0
4106,3667741,218,0,0,0,0
4107,3668654,217,0,0,0,0
4108,3669601,217,0,0,0,0
4109,3670578,222,0,0,0,0
4110,3671575,191,0,0,0,0
4111,3672577,189,0,0,0,0
4112,3673542,189,0,0,0,0
4113,3674519,189,0,0,0,0
4114,3675490,183,0,0,0,0
4115,3676425,213,0,0,0,0
4116,3677371,213,0,0,0,0
4117,3678331,219,0,0,0,0
4118,3679269,217,0,0,0,0
4119,3680215,218,0,0,0,0
4120,3681161,220,0,0,0,0
4121,3682103,221,0,0,0,0
4122,3683002,215,0,0,0,0
4123,3683919,217,0,0,0,0
4124,3684887,217,0,0,0,0
4125,3685794,215,0,0,0,0
4126,3686709,215,0,0,0,0
4127,3687663,215,0,0,0,0
4128,3688640,215,0,0,0,0
4129,3689605,216,0,0,0,0
4130,3690529,215,0,0,0,0
4131,3691462,214,0,0,0,0
4132,3692364,214,0,0,0,0
4133,3693220,216,0,0,0,0
4134,3694078,215,0,0,0,0
4135,3694931,216,0,0,0,0
4136,3695756,218,0,0,0,0
4137,3696568,217,0,0,0,0
4138,3697422,215,0,0,0,0
4139,3698298,212,0,0,0,0
4140,3699188,212,0,0,0,0
4141,3700089,210,0,0,0,0
4142,3700966,209,0,0,0,0
4143,3701803,211,0,0,0,0
4144,3702606,213,0,0,0,0
4145,3703421,213,0,0,0,0
4146,3704251,213,0,0,0,0
4147,3705087,213,0,0,0,0
4148,3705923,210,0,0,0,0
4149,3706793,209,0,0,0,0
4150,3707712,208,0,0,0,0
4151,3708652,209,0,0,0,0
4152,3709565,211,0,0,0,0
4153,3710522,211,0,0,0,0
4154,3711502,212,0,0,0,0
4155,3712506,213,0,0,0,0
4156,3713477,213,0,0,0,0
4157,3714465,213,0,0,0,0
4158,3715469,213,0,0,0,0
4159,3716463,213,0,0,0,0
4160,3717399,214,0,0,0,0
4161,3718371,213,0,0,0,0
4162,3719356,212,0,0,0,0
4163,3720293,216,0,0,0,0
4164,3721219,217,0,0,0,0
4165,3722071,213,0,0,0,0
4166,3722920,204,0,0,0,0
4167,3723802,209,0,0,0,0
4168,3724708,207,0,0,0,0
4169,3725617,213,0,0,0,0
4170,3726495,185,0,0,0,0
4171,3727317,181,0,0,0,0
4172,3728116,177,0,0,0,0
4173,3728895,165,0,0,0,0
4174,3729662,159,0,0,0,0
4175,3730435,184,0,0,0,0
4176,3731255,199,0,0,0,0
4177,3732131,198,0,0,0,0
4178,3733051,215,0,0,0,0
4179,3733969,219,0,0,0,0
4180,3734889,217,0,0,0,0
4181,3735789,212,0,0,0,0
4182,3736636,215,0,0,0,0
4183,3737483,213,0,0,0,0
4184,3738335,213,0,0,0,0
4185,3739168,215,0,0,0,0
4186,3740011,222,0,0,0,0
4187,3740875,220,0,0,0,0
4188,3741770,218,0,0,0,0
4189,3742635,216,0,0,0,0
4190,3743548,215,0,0,0,0
4191,3744497,216,0,0,0,0
4192,3745450,218,0,0,0,0
4193,3746377,218,0,0,0,0
4194,3747316,218,0,0,0,0
4195,3748275,218,0,0,0,0
4196,3749261,217,0,0,0,0
4197,3750256,216,0,0,0,0
4198,3751210,217,0,0,0,0
4199,3752198,217,0,0,0,0
4200,3753197,219,0,0,0,0
4201,3754192,219,0,0,0,0
4202,3755137,219,0,0,0,0
4203,3756117,218,0,0,0,0
4204,3757123,218,0,0,0,0
4205,3758109,216,0,0,0,0
4206,3759054,217,0,0,0,0
4207,3760034,218,0,0,0,0
4208,3761019,219,0,0,0,0
4209,3761966,221,0,0,0,0
4210,3762942,220,0,0,0,0
4211,3763925,220,0,0,0,0
4212,3764854,220,0,0,0,0
4213,3765795,219,0,0,0,0
4214,3766768,218,0,0,0,0
4215,3767744,225,0,0,0,0
4216,3768647,227,0,0,0,0
4217,3769570,227,0,0,0,0
4218,3770547,229,0,0,0,0
4219,3771521,229,0,0,0,0
4220,3772448,225,0,0,0,0
4221,3773376,255,0,0,0,0
4222,3774322,245,0,0,0,0
4223,3775238,246,0,0,0,0
4224,3776118,246,0,0,0,0
4225,3777035,244,0,0,0,0
4226,3777967,210,0,0,0,0
4227,3778875,219,0,0,0,0
4228,3779779,217,0,0,0,0
4229,3780742,215,0,0,0,0
4230,3781746,213,0,0,0,0
4231,3782715,215,0,0,0,0
4232,3783635,216,0,0,0,0
4233,3784559,216,0,0,0,0
4234,3785456,217,0,0,0,0
4235,3786312,219,0,0,0,0
4236,3787157,220,0,0,0,0
4237,3788038,220,0,0,0,0
4238,3788947,223,0,0,0,0
4239,3789875,222,0,0,0,0
4240,3790829,221,0,0,0,0
4241,3791740,220,0,0,0,0
4242,3792667,220,0,0,0,0
4243,3793645,218,0,0,0,0
4244,3794651,218,0,0,0,0
4245,3795650,220,0,0,0,0
4246,3796605,218,0,0,0,0
4247,3797590,217,0,0,0,0
4248,3798591,217,0,0,0,0
4249,3799598,217,0,0,0,0
4250,3800561,216,0,0,0,0
4251,3801548,216,0,0,0,0
4252,3802549,215,0,0,0,0
4253,3803567,215,0,0,0,0
4254,3804551,215,0,0,0,0
4255,3805559,214,0,0,0,0
4256,3806570,213,0,0,0,0
4257,3807561,215,0,0,0,0
4258,3808523,216,0,0,0,0
4259,3809500,216,0,0,0,0
4260,3810475,218,0,0,0,0
4261,3811412,219,0,0,0,0
4262,3812388,219,0,0,0,0
4263,3813367,218,0,0,0,0
4264,3814290,219,0,0,0,0
4265,3815252,217,0,0,0,0
4266,3816221,217,0,0,0,0
4267,3817157,216,0,0,0,0
4268,3818060,217,0,0,0,0
4269,3818997,218,0,0,0,0
4270,3819970,217,0,0,0,0
4271,3820882,209,0,0,0,0
4272,3821815,208,0,0,0,0
4273,3822712,214,0,0,0,0
4274,3823582,214,0,0,0,0
4275,3824484,212,0,0,0,0
4276,3825408,221,0,0,0,0
4277,3826304,210,0,0,0,0
4278,3827190,204,0,0,0,0
4279,3828104,210,0,0,0,0
4280,3829048,209,0,0,0,0
4281,3829947,210,0,0,0,0
4282,3830865,221,0,0,0,0
4283,3831825,217,0,0,0,0
4284,3832803,213,0,0,0,0
4285,3833739,217,0,0,0,0
4286,3834721,214,0,0,0,0
4287,3835693,215,0,0,0,0
4288,3836643,219,0,0,0,0
4289,3837556,217,0,0,0,0
4290,3838520,215,0,0,0,0
4291,3839490,216,0,0,0,0
4292,3840438,216,0,0,0,0
4293,3841389,215,0,0,0,0
4294,3842305,218,0,0,0,0
4295,3843228,219,0,0,0,0
4296,3844119,221,0,0,0,0
4297,3845035,218,0,0,0,0
4298,3845976,217,0,0,0,0
4299,3846927,213,0,0,0,0
4300,3847825,215,0,0,0,0
4301,3848743,214,0,0,0,0
4302,3849699,215,0,0,0,0
4303,3850650,218,0,0,0,0
4304,3851578,220,0,0,0,0
4305,3852543,220,0,0,0,0
4306,3853518,218,0,0,0,0
4307,3854503,219,0,0,0,0
4308,3855463,219,0,0,0,0
4309,3856441,215,0,0,0,0
4310,3857422,214,0,0,0,0
4311,3858388,215,0,0,0,0
4312,3859348,215,0,0,0,0
4313,3860311,214,0,0,0,0
4314,3861284,217,0,0,0,0
4315,3862240,218,0,0,0,0
4316,3863225,217,0,0,0,0
4317,3864225,216,0,0,0,0
4318,3865171,217,0,0,0,0
4319,3866164,216,0,0,0,0
4320,3867171,218,0,0,0,0
4321,3868111,220,0,0,0,0
4322,3869049,220,0,0,0,0
4323,3869946,220,0,0,0,0
4324,3870812,222,0,0,0,0
4325,3871640,221,0,0,0,0
4326,3872501,220,0,0,0,0
4327,3873418,219,0,0,0,0
4328,3874384,219,0,0,0,0
4329,3875313,218,0,0,0,0
4330,3876205,218,0,0,0,0
4331,3877107,218,0,0,0,0
4332,3878039,218,0,0,0,0
4333,3878979,216,0,0,0,0
4334,3879896,216,0,0,0,0
4335,3880801,214,0,0,0,0
4336,3881748,214,0,0,0,0
4337,3882730,215,0,0,0,0
4338,3883719,214,0,0,0,0
4339,3884668,211,0,0,0,0
4340,3885638,211,0,0,0,0
4341,3886616,211,0,0,0,0
4342,3887562,212,0,0,0,0
4343,3888505,213,0,0,0,0
4344,3889449,217,0,0,0,0
4345,3890334,217,0,0,0,0
4346,3891193,217,0,0,0,0
4347,3892118,219,0,0,0,0
4348,3893069,218,0,0,0,0
4349,3893982,218,0,0,0,0
4350,3894924,218,0,0,0,0
4351,3895898,217,0,0,0,0
4352,3896849,215,0,0,0,0
4353,3897759,216,0,0,0,0
4354,3898712,215,0,0,0,0
4355,3899706,218,0,0,0,0
4356,3900683,217,0,0,0,0
4357,3901609,219,0,0,0,0
4358,3902574,217,0,0,0,0
4359,3903583,218,0,0,0,0
4360,3904586,215,0,0,0,0
4361,3905548,216,0,0,0,0
4362,3906545,214,0,0,0,0
4363,3907513,215,0,0,0,0
4364,3908431,215,0,0,0,0
4365,3909374,216,0,0,0,0
4366,3910336,215,0,0,0,0
4367,3911309,213,0,0,0,0
4368,3912227,214,0,0,0,0
4369,3913165,214,0,0,0,0
4370,3914122,212,0,0,0,0
4371,3915043,212,0,0,0,0
4372,3915923,216,0,0,0,0
4373,3916840,213,0,0,0,0
4374,3917771,214,0,0,0,0
4375,3918653,214,0,0,0,0
4376,3919548,214,0,0,0,0
4377,3920459,212,0,0,0,0
4378,3921365,212,0,0,0,0
4379,3922263,212,0,0,0,0
4380,3923218,212,0,0,0,0
4381,3924213,211,0,0,0,0
4382,3925168,213,0,0,0,0
4383,3926133,212,0,0,0,0
4384,3927129,212,0,0,0,0
4385,3928145,213,0,0,0,0
4386,3929109,215,0,0,0,0
4387,3930105,214,0,0,0,0
4388,3931107,214,0,0,0,0
4389,3932088,215,0,0,0,0
4390,3933041,215,0,0,0,0
4391,3934024,214,0,0,0,0
4392,3934996,214,0,0,0,0
4393,3935911,219,0,0,0,0
4394,3936856,218,0,0,0,0
4395,3937810,217,0,0,0,0
4396,3938712,217,0,0,0,0
4397,3939639,216,0,0,0,0
4398,3940615,211,0,0,0,0
4399,3941618,212,0,0,0,0
4400,3942576,213,0,0,0,0
4401,3943486,212,0,0,0,0
4402,3944418,212,0,0,0,0
4403,3945383,213,0,0,0,0
4404,3946291,214,0,0,0,0
4405,3947223,213,0,0,0,0
4406,3948193,214,0,0,0,0
4407,3949153,215,0,0,0,0
4408,3950064,216,0,0,0,0
4409,3950991,214,0,0,0,0
4410,3951922,214,0,0,0,0
4411,3952848,215,0,0,0,0
4412,3953729,215,0,0,0,0
4413,3954653,213,0,0,0,0
4414,3955615,213,0,0,0,0
4415,3956567,214,0,0,0,0
4416,3957513,213,0,0,0,0
4417,3958505,212,0,0,0,0
4418,3959502,213,0,0,0,0
4419,3960414,215,0,0,0,0
4420,3961303,215,0,0,0,0
4421,3962191,215,0,0,0,0
4422,3963105,215,0,0,0,0
4423,3963990,216,0,0,0,0
4424,3964911,208,0,0,0,0
4425,3965885,209,0,0,0,0
4426,3966845,209,0,0,0,0
4427,3967774,209,0,0,0,0
4428,3968720,209,0,0,0,0
4429,3969686,215,0,0,0,0
4430,3970657,213,0,0,0,0
4431,3971567,215,0,0,0,0
4432,3972463,215,0,0,0,0
4433,3973390,215,0,0,0,0
4434,3974353,215,0,0,0,0
4435,3975284,215,0,0,0,0
4436,3976179,214,0,0,0,0
4437,3977108,214,0,0,0,0
4438,3978057,213,0,0,0,0
4439,3978996,213,0,0,0,0
4440,3979922,213,0,0,0,0
4441,3980878,212,0,0,0,0
4442,3981842,211,0,0,0,0
4443,3982768,212,0,0,0,0
4444,3983719,212,0,0,0,0
4445,3984679,212,0,0,0,0
4446,3985585,213,0,0,0,0
4447,3986413,214,0,0,0,0
4448,3987213,208,0,0,0,0
4449,3988079,207,0,0,0,0
4450,3988949,207,0,0,0,0
4451,3989814,206,0,0,0,0
4452,3990681,206,0,0,0,0
4453,3991612,212,0,0,0,0
4454,3992562,212,0,0,0,0
4455,3993458,214,0,0,0,0
4456,3994358,214,0,0,0,0
4457,3995276,207,0,0,0,0
4458,3996218,208,0,0,0,0
4459,3997161,210,0,0,0,0
4460,3998120,208,0,0,0,0
4461,3999039,210,0,0,0,0
4462,3999995,217,0,0,0,0
4463,4000998,216,0,0,0,0
4464,4002004,216,0,0,0,0
4465,4003008,216,0,0,0,0
4466,4003975,215,0,0,0,0
4467,4004957,215,0,0,0,0
4468,4005947,216,0,0,0,0
4469,4006949,215,0,0,0,0
4470,4007960,214,0,0,0,0
4471,4008959,205,0,0,0,0
4472,4009869,208,0,0,0,0
4473,4010764,218,0,0,0,0
4474,4011624,204,0,0,0,0
4475,4012482,201,0,0,0,0
4476,4013330,203,0,0,0,0
4477,4014157,204,0,0,0,0
4478,4014994,194,0,0,0,0
4479,4015811,206,0,0,0,0
4480,4016605,208,0,0,0,0
4481,4017416,216,0,0,0,0
4482,4018236,203,0,0,0,0
4483,4019060,204,0,0,0,0
4484,4019842,204,0,0,0,0
4485,4020622,210,0,0,0,0
4486,4021426,225,0,0,0,0
4487,4022260,233,0,0,0,0
4488,4023119,229,0,0,0,0
4489,4023999,197,0,0,0,0
4490,4024893,193,0,0,0,0
4491,4025783,182,0,0,0,0
4492,4026626,170,0,0,0,0
4493,4027484,162,0,0,0,0
4494,4028366,146,0,0,0,0
4495,4029240,124,0,0,0,0
4496,4030116,127,0,0,0,0
4497,4030979,147,0,0,0,0
4498,4031853,166,0,0,0,0
4499,4032729,220,0,0,0,0
4500,4033603,228,0,0,0,0
4501,4034459,230,0,0,0,0
4502,4035312,218,0,0,0,0
4503,4036171,217,0,0,0,0
4504,4037013,216,0,0,0,0
4505,4037878,199,0,0,0,0
4506,4038787,202,0,0,0,0
4507,4039735,212,0,0,0,0
4508,4040672,210,0,0,0,0
4509,4041611,204,0,0,0,0
4510,4042545,209,0,0,0,0
4511,4043473,199,0,0,0,0
4512,4044365,271,0,0,0,0
4513,4045241,248,0,0,0,0
4514,4046087,287,0,0,0,0
4515,4046909,308,0,0,0,0
4516,4047697,343,0,0,0,0
4517,4048449,250,0,0,0,0
4518,4049212,279,0,0,0,0
4519,4049995,238,0,0,0,0
4520,4050832,212,0,0,0,0
4521,4051771,215,0,0,0,0
4522,4052764,218,0,0,0,0
4523,4053789,220,0,0,0,0
4524,4054783,220,0,0,0,0
4525,4055795,218,0,0,0,0
4526,4056799,216,0,0,0,0
4527,4057785,215,0,0,0,0
4528,4058715,215,0,0,0,0
4529,4059638,221,0,0,0,0
4530,4060526,226,0,0,0,0
4531,4061401,225,0,0,0,0
4532,4062291,224,0,0,0,0
4533,4063212,223,0,0,0,0
4534,4064144,217,0,0,0,0
4535,4065018,214,0,0,0,0
4536,4065942,218,0,0,0,0
4537,4066895,219,0,0,0,0
4538,4067871,217,0,0,0,0
4539,4068844,215,0,0,0,0
4540,4069781,216,0,0,0,0
4541,4070745,212,0,0,0,0
4542,4071722,212,0,0,0,0
4543,4072653,215,0,0,0,0
4544,4073609,211,0,0,0,0
4545,4074557,211,0,0,0,0
4546,4075506,213,0,0,0,0
4547,4076451,208,0,0,0,0
4548,4077387,207,0,0,0,0
4549,4078273,213,0,0,0,0
4550,4079172,214,0,0,0,0
4551,4080056,214,0,0,0,0
4552,4080945,222,0,0,0,0
4553,4081782,222,0,0,0,0
4554,4082628,224,0,0,0,0
4555,4083502,231,0,0,0,0
4556,4084364,233,0,0,0,0
4557,4085246,231,0,0,0,0
4558,4086150,228,0,0,0,0
4559,4087071,220,0,0,0,0
4560,4087990,211,0,0,0,0
4561,4088838,184,0,0,0,0
4562,4089676,175,0,0,0,0
4563,4090507,176,0,0,0,0
4564,4091306,181,0,0,0,0
4565,4092122,179,0,0,0,0
4566,4092994,209,0,0,0,0
4567,4093932,208,0,0,0,0
4568,4094882,208,0,0,0,0
4569,4095840,208,0,0,0,0
4570,4096799,232,0,0,0,0
4571,4097736,195,0,0,0,0
4572,4098658,170,0,0,0,0
4573,4099567,157,0,0,0,0
4574,4100170,238,0,0,0,0
4575,4101280,212,0,0,0,0
4576,4102067,250,0,0,0,0
4577,4102872,277,0,0,0,0
4578,4103713,251,0,0,0,0
4579,4104649,199,0,0,0,0
4580,4105600,198,0,0,0,0
4581,4106549,156,0,0,0,0
4582,4107460,247,0,0,0,0
4583,4108332,313,0,0,0,0
4584,4109188,326,0,0,0,0
4585,4110032,326,0,0,0,0
4586,4110874,369,0,0,0,0
4587,4111701,294,0,0,0,0
4588,4112616,254,0,0,0,0
4589,4113384,323,0,0,0,0
4590,4114230,254,0,0,0,0
4591,4115082,212,0,0,0,0
4592,4115906,184,0,0,0,0
4593,4116719,192,0,0,0,0
4594,4117612,141,0,0,0,0
4595,4118566,171,0,0,0,0
4596,4119535,200,0,0,0,0
4597,4120511,208,0,0,0,0
4598,4121486,203,0,0,0,0
4599,4122454,181,0,0,0,0
4600,4123394,176,0,0,0,0
4601,4124358,160,0,0,0,0
4602,4125339,162,0,0,0,0
4603,4126328,178,0,0,0,0
4604,4127324,196,0,0,0,0
4605,4128319,223,0,0,0,0
4606,4129259,243,0,0,0,0
4607,4130195,244,0,0,0,0
4608,4131158,239,0,0,0,0
4609,4132170,239,0,0,0,0
4610,4133221,220,0,0,0,0
4611,4134287,218,0,0,0,0
4612,4135329,228,0,0,0,0
4613,4136355,231,0,0,0,0
4614,4137348,205,0,0,0,0
4615,4138276,207,0,0,0,0
4616,4139216,220,0,0,0,0
4617,4140159,155,0,0,0,0
4618,4141129,168,0,0,0,0
4619,4142083,187,0,0,0,0
4620,4143023,170,0,0,0,0
4621,4143994,157,0,0,0,0
4622,4145003,194,0,0,0,0
4623,4146029,151,0,0,0,0
4624,4147012,152,0,0,0,0
4625,4148021,169,0,0,0,0
4626,4149055,172,0,0,0,0
4627,4150099,173,0,0,0,0
4628,4151095,206,0,0,0,0
4629,4152123,236,0,0,0,0
4630,4153153,248,0,0,0,0
4631,4153695,283,0,0,0,0
4632,4154113,267,0,0,0,0
4633,4155030,256,0,0,0,0
4634,4155923,208,0,0,0,0
4635,4156785,197,0,0,0,0
4636,4157629,200,0,0,0,0
4637,4158496,206,0,0,0,0
4638,4159410,212,0,0,0,0
4639,4160368,227,0,0,0,0
4640,4161258,227,0,0,0,0
4641,4162175,186,0,0,0,0
4642,4163128,202,0,0,0,0
4643,4164074,204,0,0,0,0
4644,4164959,205,0,0,0,0
4645,4165791,200,0,0,0,0
4646,4166602,211,0,0,0,0
4647,4167403,249,0,0,0,0
4648,4168160,251,0,0,0,0
4649,4168756,301,0,0,0,0
4650,4169276,329,0,0,0,0
4651,4169667,309,0,0,0,0
4652,4170398,260,0,0,0,0
4653,4171122,271,0,0,0,0
4654,4171846,300,0,0,0,0
4655,4172566,264,0,0,0,0
4656,4173282,277,0,0,0,0
4657,4173771,347,0,0,0,0
4658,4174303,347,0,0,0,0
4659,4174710,256,0,0,0,0
4660,4175407,261,0,0,0,0
4661,4176093,261,0,0,0,0
4662,4176770,203,0,0,0,0
4663,4177257,243,0,0,0,0
4664,4178130,245,0,0,0,0
4665,4178798,233,0,0,0,0
4666,4179352,257,0,0,0,0
4667,4182351,253,0,0,0,0
4668,4183160,218,0,0,0,0
4669,4184036,216,0,0,0,0
4670,4184943,229,0,0,0,0
4671,4185824,195,0,0,0,0
4672,4186732,189,0,0,0,0
4673,4187663,189,0,0,0,0
4674,4188601,188,0,0,0,0
4675,4189522,184,0,0,0,0
4676,4190390,185,0,0,0,0
4677,4191192,193,0,0,0,0
4678,4191972,196,0,0,0,0
4679,4192735,195,0,0,0,0
4680,4193500,199,0,0,0,0
4681,4194297,200,0,0,0,0
4682,4195131,198,0,0,0,0
4683,4195981,197,0,0,0,0
4684,4196850,198,0,0,0,0
4685,4197709,199,0,0,0,0
4686,4198535,197,0,0,0,0
4687,4199346,197,0,0,0,0
4688,4200122,198,0,0,0,0
4689,4200892,198,0,0,0,0
4690,4201679,198,0,0,0,0
4691,4202495,199,0,0,0,0
4692,4203426,196,0,0,0,0
4693,4204353,194,0,0,0,0
4694,4205282,191,0,0,0,0
4695,4206171,191,0,0,0,0
4696,4207024,191,0,0,0,0
4697,4207877,196,0,0,0,0
4698,4208733,197,0,0,0,0
4699,4209610,200,0,0,0,0
4700,4210525,201,0,0,0,0
4701,4211436,198,0,0,0,0
4702,4212306,202,0,0,0,0
4703,4213164,206,0,0,0,0
4704,4213983,210,0,0,0,0
4705,4214817,179,0,0,0,0
4706,4215658,167,0,0,0,0
4707,4216480,166,0,0,0,0
4708,4217324,163,0,0,0,0
4709,4218214,159,0,0,0,0
4710,4219119,190,0,0,0,0
4711,4219981,206,0,0,0,0
4712,4220820,204,0,0,0,0
4713,4221683,202,0,0,0,0
4714,4222603,201,0,0,0,0
4715,4223574,201,0,0,0,0
4716,4224587,201,0,0,0,0
4717,4225559,202,0,0,0,0
4718,4226463,205,0,0,0,0
4719,4227379,207,0,0,0,0
4720,4228298,209,0,0,0,0
4721,4229245,208,0,0,0,0
4722,4230198,207,0,0,0,0
4723,4231146,203,0,0,0,0
4724,4232043,202,0,0,0,0
4725,4232945,202,0,0,0,0
4726,4233874,203,0,0,0,0
4727,4234805,204,0,0,0,0
4728,4235696,206,0,0,0,0
4729,4236534,205,0,0,0,0
4730,4237389,204,0,0,0,0
4731,4238281,204,0,0,0,0
4732,4239173,204,0,0,0,0
4733,4240082,204,0,0,0,0
4734,4241016,204,0,0,0,0
4735,4241913,206,0,0,0,0
4736,4242813,205,0,0,0,0
4737,4243711,205,0,0,0,0
4738,4244619,206,0,0,0,0
4739,4245542,206,0,0,0,0
4740,4246451,205,0,0,0,0
4741,4247335,206,0,0,0,0
4742,4248229,208,0,0,0,0
4743,4249116,209,0,0,0,0
4744,4249969,209,0,0,0,0
4745,4250783,210,0,0,0,0
4746,4251619,208,0,0,0,0
4747,4252527,205,0,0,0,0
4748,4253513,206,0,0,0,0
4749,4254541,211,0,0,0,0
4750,4255506,211,0,0,0,0
4751,4256480,215,0,0,0,0
4752,4257449,217,0,0,0,0
4753,4258410,218,0,0,0,0
4754,4259319,213,0,0,0,0
4755,4260256,210,0,0,0,0
4756,4261216,207,0,0,0,0
4757,4262197,208,0,0,0,0
4758,4263079,206,0,0,0,0
4759,4264019,207,0,0,0,0
4760,4264949,208,0,0,0,0
4761,4265879,209,0,0,0,0
4762,4266814,207,0,0,0,0
4763,4267730,207,0,0,0,0
4764,4268634,206,0,0,0,0
4765,4269552,206,0,0,0,0
4766,4270499,207,0,0,0,0
4767,4271469,207,0,0,0,0
4768,4272400,207,0,0,0,0
4769,4273358,207,0,0,0,0
4770,4274348,207,0,0,0,0
4771,4275341,205,0,0,0,0
4772,4276289,202,0,0,0,0
4773,4277231,201,0,0,0,0
4774,4278157,202,0,0,0,0
4775,4279048,204,0,0,0,0
4776,4279932,204,0,0,0,0
4777,4280866,206,0,0,0,0
4778,4281837,205,0,0,0,0
4779,4282835,202,0,0,0,0
4780,4283217,214,0,0,0,0
4781,4283771,211,0,0,0,0
4782,4284715,217,0,0,0,0
4783,4285632,222,0,0,0,0
4784,4286510,224,0,0,0,0
4785,4287419,193,0,0,0,0
4786,4288314,169,0,0,0,0
4787,4289219,169,0,0,0,0
4788,4290084,198,0,0,0,0
4789,4290928,206,0,0,0,0
4790,4291811,232,0,0,0,0
4791,4292681,268,0,0,0,0
4792,4293627,270,0,0,0,0
4793,4294593,245,0,0,0,0
4794,4295594,247,0,0,0,0
4795,4296609,248,0,0,0,0
4796,4297599,247,0,0,0,0
4797,4298526,246,0,0,0,0
4798,4299477,239,0,0,0,0
4799,4300449,238,0,0,0,0
4800,4301411,226,0,0,0,0
4801,4302338,223,0,0,0,0
4802,4303300,219,0,0,0,0
4803,4304246,220,0,0,0,0
4804,4305190,234,0,0,0,0
4805,4306151,239,0,0,0,0
4806,4307140,236,0,0,0,0
4807,4308082,235,0,0,0,0
4808,4309048,232,0,0,0,0
4809,4310044,213,0,0,0,0
4810,4311036,195,0,0,0,0
4811,4311938,200,0,0,0,0
4812,4312883,199,0,0,0,0
4813,4313867,197,0,0,0,0
4814,4314873,190,0,0,0,0
4815,4315881,187,0,0,0,0
4816,4316823,179,0,0,0,0
4817,4317817,180,0,0,0,0
4818,4318800,185,0,0,0,0
4819,4319727,192,0,0,0,0
4820,4320689,213,0,0,0,0
4821,4321697,216,0,0,0,0
4822,4322726,217,0,0,0,0
4823,4323687,217,0,0,0,0
4824,4324667,216,0,0,0,0
4825,4325670,221,0,0,0,0
4826,4326663,221,0,0,0,0
4827,4327583,220,0,0,0,0
4828,4328565,219,0,0,0,0
4829,4329554,220,0,0,0,0
4830,4330522,216,0,0,0,0
4831,4331429,215,0,0,0,0
4832,4332388,214,0,0,0,0
4833,4333364,213,0,0,0,0
4834,4334307,212,0,0,0,0
4835,4335232,211,0,0,0,0
4836,4336171,213,0,0,0,0
4837,4337129,215,0,0,0,0
4838,4338061,216,0,0,0,0
4839,4339033,216,0,0,0,0
4840,4340034,217,0,0,0,0
4841,4340979,224,0,0,0,0
4842,4341943,225,0,0,0,0
4843,4342876,221,0,0,0,0
4844,4343722,203,0,0,0,0
4845,4344558,176,0,0,0,0
4846,4345438,174,0,0,0,0
4847,4346405,233,0,0,0,0
4848,4347390,237,0,0,0,0
4849,4347916,313,0,0,0,0
4850,4348366,339,0,0,0,0
4851,4349267,325,0,0,0,0
4852,4350145,262,0,0,0,0
4853,4351032,259,0,0,0,0
4854,4351943,202,0,0,0,0
4855,4352858,200,0,0,0,0
4856,4353739,210,0,0,0,0
4857,4354661,210,0,0,0,0
4858,4355612,213,0,0,0,0
4859,4356607,212,0,0,0,0
4860,4357547,213,0,0,0,0
4861,4358538,212,0,0,0,0
4862,4359544,212,0,0,0,0
4863,4360547,211,0,0,0,0
4864,4361517,215,0,0,0,0
4865,4362406,222,0,0,0,0
4866,4363314,222,0,0,0,0
4867,4364229,221,0,0,0,0
4868,4365184,221,0,0,0,0
4869,4366125,219,0,0,0,0
4870,4367057,211,0,0,0,0
4871,4368040,210,0,0,0,0
4872,4369051,211,0,0,0,0
4873,4370064,211,0,0,0,0
4874,4371003,212,0,0,0,0
4875,4371945,212,0,0,0,0
4876,4372899,212,0,0,0,0
4877,4373882,212,0,0,0,0
4878,4374858,213,0,0,0,0
4879,4375754,211,0,0,0,0
4880,4376575,212,0,0,0,0
4881,4377423,211,0,0,0,0
4882,4378336,211,0,0,0,0
4883,4379319,208,0,0,0,0
4884,4380325,208,0,0,0,0
4885,4381334,207,0,0,0,0
4886,4382345,208,0,0,0,0
4887,4383331,210,0,0,0,0
4888,4384296,211,0,0,0,0
4889,4385285,212,0,0,0,0
4890,4386269,212,0,0,0,0
4891,4387251,213,0,0,0,0
4892,4388245,212,0,0,0,0
4893,4389244,214,0,0,0,0
4894,4390194,216,0,0,0,0
