-5083.69
-5083.69
-5085.91
-5087.57
-5086.41
-5085.12
-5085.88
-5085.91
-5082.89
-5079.52
-5077.98
-5075.48
-5069.76
-5063.58
-5059.2
-5053.95
-5045.7
-5037.37
-5031.41
-5025.32
-5017.26
-5010.2
-5006.58
-5004.27
-5001.64
-5001.62
-5006.64
-5014.54
-5023.57
-5036.47
-5055.41
-5077.89
-5101.77
-5129.3
-5162.12
-5197.15
-5231.62
-5267.15
-5304.73
-5340.65
-5371.63
-5398.62
-5421.98
-5437.84
-5442.7
-5437.29
-5421.93
-5392.85
-5346.88
-5285.12
-5208.48
-5113.92
-4999.08
-4866.05
-4716.77
-4549.33
-4362.56
-4159.75
-3944.06
-3714.75
-3471.83
-3219.54
-2961.79
-2698.83
-2431.41
-2164.1
-1901.13
-1642.84
-1389.87
-1146.56
-916.642
-699.854
-496.064
-308.681
-140.429
10.0715
144.12
259.515
354.737
432.353
494.725
540.8
570.172
586.083
591.544
586.178
570.017
546.585
519.033
486.977
450.308
412.286
375.685
339.655
303.545
270.018
241.221
215.654
192.022
172.364
158.172
147.486
138.666
133.17
132.079
133.252
134.855
138.228
144.397
151.231
156.959
163.025
170.597
177.71
182.772
187.417
192.993
197.711
200.139
202.046
204.838
206.886
206.943
206.668
207.421
207.65
206.091
204.38
203.845
202.9
202.984
203.458
202.874
201.861
201.857
202.221
201.503
200.333
200.148
200.306
199.304
197.838
197.459
197.388
196.067
194.269
193.548
193.132
191.581
189.576
188.439
187.595
185.732
183.437
182.035
180.954
178.878
176.4
174.846
173.644
171.436
168.871
167.381
166.269
164.122
161.658
160.304
159.364
157.528
155.423
154.261
153.515
151.979
150.188
149.35
148.93
147.718
146.243
145.707
145.569
144.573
143.296
143.027
143.113
142.244
141.06
140.851
140.965
140.186
139.081
138.745
138.688
137.803
136.572
136.096
135.885
134.835
133.43
132.773
132.376
131.102
129.481
128.706
128.187
126.743
124.966
124.054
123.417
121.962
120.212
119.189
118.451
117
115.287
114.334
113.704
112.404
110.887
110.174
109.834
108.836
107.689
107.497
107.739
107.345
106.88
107.444
108.521
109.119
109.734
111.297
113.42
115.187
117.012
119.815
123.186
126.189
129.216
133.161
137.592
141.521
145.352
150.029
155.003
159.228
163.129
167.628
172.165
175.748
178.736
181.898
184.796
186.524
187.387
188.169
188.452
187.352
185.21
182.85
179.891
175.461
169.989
164.41
158.316
150.857
142.549
134.377
125.976
116.602
106.756
97.3115
88.045
78.3024
68.5324
59.6135
51.3127
42.9578
34.9801
28.2304
22.4405
16.8742
11.948
8.51924
6.1979
4.16288
2.81413
2.95633
4.14417
5.56286
7.51814
10.6484
14.5699
18.5009
22.666
27.6814
33.1493
38.2778
43.2925
48.8145
54.4586
59.4282
63.9994
68.8759
73.6336
77.4804
80.7621
84.2158
87.4552
89.7774
91.5172
93.3324
94.9559
95.7719
96.0882
96.5824
97
96.7358
96.104
95.7834
95.5204
94.6783
93.5997
93.005
92.5701
91.6171
90.5125
89.9594
89.6257
88.8699
88.0057
87.6207
87.4586
86.9298
86.2908
86.1175
86.1526
85.7993
85.3148
85.2736
85.4187
85.1342
84.704
84.751
84.9644
84.7051
84.2912
84.3511
84.5739
84.3761
84.0336
84.0836
84.292
84.1259
83.8202
83.9141
84.1703
84.0568
83.805
83.9552
84.2664
84.1838
83.9653
84.1895
84.5655
84.5181
84.3291
84.5796
84.9775
84.9861
84.8559
85.0761
85.4295
85.4236
85.2725
85.4648
85.783
85.7355
85.534
85.6666
85.9157
85.7667
85.4594
85.5242
85.6931
85.4363
85.0164
84.9612
85.0092
84.6737
84.1852
83.9944
83.9075
83.4779
82.9086
82.6515
82.5145
82.0546
81.4738
81.2274
81.1218
80.6935
80.1691
80.0362
80.0596
79.7606
79.3822
79.4117
79.6096
79.5266
79.3762
79.5703
79.924
80.0231
80.0456
80.3962
80.8894
81.1077
81.2261
81.648
82.1843
82.401
82.4915
82.8908
83.3724
83.4903
83.4579
83.7149
84.0377
84.0147
83.8384
83.8828
83.9864
83.7774
83.4247
83.308
83.2671
82.9324
82.4762
82.28
82.1857
81.8112
81.347
81.2052
81.1895
80.9021
80.5495
80.538
80.6723
80.5837
80.4489
80.609
80.9154
81.028
81.0934
81.4496
81.9437
82.2294
82.4527
82.9496
83.5649
83.9382
84.2296
84.8011
85.4656
85.8502
86.1328
86.6777
87.2993
87.651
87.8937
88.3396
88.8493
89.1077
89.2547
89.6045
90.0192
90.1896
90.2519
90.5197
90.8582
90.9478
90.9388
91.1706
91.4771
91.5224
91.4755
91.6745
91.9536
92.0052
91.9733
92.1425
92.3891
92.4272
92.3828
92.545
92.7845
92.8134
92.7599
92.9112
93.1407
93.1533
93.0874
93.2554
93.5028
93.5213
93.4666
93.6526
93.9242
93.9989
94.012
94.225
94.5247
94.6523
94.7208
94.9923
95.3498
95.5283
95.6425
95.9536
96.3406
96.5296
96.6427
96.9564
97.3269
97.4691
97.5162
97.7464
98.0133
98.0526
97.9814
98.0345
98.1031
97.9469
97.6647
97.4912
97.32
96.9099
96.3638
95.9192
95.4686
94.764
93.9195
93.1927
92.4544
91.4485
90.3013
89.2715
88.2299
86.9368
85.5075
84.1611
82.8026
81.2156
79.4971
77.8671
76.233
74.3779
72.4024
70.5311
68.6702
66.5977
64.4262
62.3975
60.4006
58.2061
55.9395
53.8432
51.8087
49.6295
47.412
45.3577
43.3912
41.323
39.2421
37.3504
35.5667
33.6955
31.8251
30.1564
28.6006
26.951
25.3012
23.8641
22.5291
21.0767
19.6111
18.3429
17.1619
15.8638
14.5396
13.3703
12.2717
11.0583
9.8106
8.71324
7.68468
6.54346
5.37334
4.36109
3.42898
2.39352
1.34786
0.491588
-0.264946
-1.11429
-1.95289
-2.57715
-3.08204
-3.65018
-4.18967
-4.53047
-4.74694
-5.0074
-5.23941
-5.27911
-5.20362
-5.18634
-5.15908
-4.96267
-4.67698
-4.48526
-4.31183
-3.98691
-3.60685
-3.35642
-3.15623
-2.83514
-2.48642
-2.28349
-2.15077
-1.93819
-1.71667
-1.64191
-1.64578
-1.57728
-1.50121
-1.56828
-1.70959
-1.77243
-1.81845
-2.00383
-2.24994
-2.39091
-2.50246
-2.74364
-3.03077
-3.19819
-3.32236
-3.5526
-3.81393
-3.96255
-4.05911
-4.24353
-4.44999
-4.53821
-4.56793
-4.67811
-4.80595
-4.81057
-4.75388
-4.7825
-4.82749
-4.73846
-4.59059
-4.53477
-4.49792
-4.33331
-4.11554
-3.98794
-3.88478
-3.68068
-3.43534
-3.27862
-3.15859
-2.95489
-2.72351
-2.59163
-2.51028
-2.35578
-2.18715
-2.13957
-2.15369
-2.09127
-2.02488
-2.09349
-2.22827
-2.29261
-2.35271
-2.53305
-2.77246
-2.95169
-3.119
-3.38496
-3.69609
-3.93197
-4.13851
-4.42787
-4.74454
-4.96637
-5.14038
-5.38661
-5.6422
-5.77579
-5.84926
-5.98796
-6.12622
-6.13877
-6.08695
-6.08801
-6.08807
-5.98394
-5.82302
-5.71183
-5.6096
-5.41218
-5.17206
-4.99986
-4.85401
-4.63557
-4.39329
-4.24088
-4.13291
-3.96013
-3.78288
-3.71867
-3.71488
-3.66106
-3.61624
-3.68941
-3.83106
-3.94416
-4.07225
-4.314
-4.62472
-4.90568
-5.19774
-5.59484
-6.05201
-6.46869
-6.88381
-7.39458
-7.94804
-8.43246
-8.89657
-9.44048
-10.0064
-10.483
-10.9182
-11.4033
-11.8884
-12.2807
-12.6159
-12.983
-13.3371
-13.585
-13.7671
-13.9735
-14.1634
-14.2516
-14.276
-14.3304
-14.374
-14.313
-14.199
-14.1321
-14.0671
-13.9098
-13.7128
-13.5687
-13.4383
-13.241
-13.0175
-12.8533
-12.7129
-12.5164
-12.3014
-12.1504
-12.0283
-11.856
-11.6679
-11.5484
-11.4572
-11.305
-11.1367
-11.0382
-10.9663
-10.8341
-10.6825
-10.5934
-10.5265
-10.4052
-10.2627
-10.1723
-10.1014
-9.97459
-9.82514
-9.72504
-9.64357
-9.50911
-9.35196
-9.25076
-9.16871
-9.02336
-8.85779
-8.75541
-8.67441
-8.53546
-8.37905
-8.28045
-8.20539
-8.08893
-7.95929
-7.88272
-7.83231
-7.74006
-7.63682
-7.59325
-7.57689
-7.5195
-7.45199
-7.44654
-7.46776
-7.43988
-7.40082
-7.42487
-7.47353
-7.47067
-7.45317
-7.48829
-7.54268
-7.55375
-7.54727
-7.58498
-7.63775
-7.64334
-7.62787
-7.65355
-7.69225
-7.67957
-7.64481
-7.65351
-7.675
-7.64233
-7.59005
-7.58897
-7.60298
-7.56088
-7.50208
-7.49186
-7.49951
-7.46686
-7.4223
-7.42289
-7.44474
-7.43375
-7.4131
-7.43769
-7.48442
-7.4945
-7.49437
-7.54278
-7.61059
-7.63705
-7.64883
-7.70451
-7.77278
-7.79109
-7.78657
-7.81281
-7.8405
-7.81661
-7.75958
-7.72053
-7.67185
-7.5603
-7.40548
-7.25571
-7.08852
-6.85216
-6.56849
-6.29085
-5.99486
-5.62842
-5.21939
-4.82333
-4.41952
-3.95616
-3.46604
-3.00774
-2.56152
-2.08748
-1.61275
-1.1895
-0.806869
-0.426198
-0.073578
0.196262
0.399151
0.578836
0.707723
0.731875
0.674641
0.585197
0.440365
0.192495
-0.130528
-0.470717
-0.848486
-1.30294
-1.80216
-2.29263
-2.78319
-3.30621
-3.82974
-4.29542
-4.71301
-5.1146
-5.46947
-5.72372
-5.88794
-5.99988
-6.03244
-5.93538
-5.72855
-5.45814
-5.10179
-4.61416
-4.02413
-3.38015
-2.6706
-1.86644
-0.99344
-0.0999097
0.818284
1.78868
2.78243
3.74767
4.69097
5.6423
6.57359
7.43378
8.23488
9.01347
9.74221
10.3767
10.9331
11.4508
11.9091
12.2707
12.5541
12.7962
12.9851
13.0863
13.1212
13.1317
13.1039
13.0065
12.8578
12.6955
12.5095
12.2683
11.9887
11.713
11.4224
11.0779
10.7017
10.3323
9.95253
9.52692
9.07287
8.62498
8.16768
7.66942
7.14572
6.62699
6.10308
5.54411
4.96473
4.39818
3.83314
3.2363
2.62744
2.04645
1.47626
0.88178
0.284937
-0.277996
-0.82134
-1.37617
-1.92547
-2.43553
-2.9202
-3.41149
-3.89301
-4.33752
-4.75394
-5.16981
-5.57503
-5.94067
-6.27871
-6.62023
-6.95104
-7.24149
-7.50457
-7.77682
-8.03805
-8.25951
-8.4531
-8.65
-8.83407
-8.98063
-9.09791
-9.215
-9.31939
-9.38294
-9.41962
-9.45278
-9.47787
-9.46574
-9.43537
-9.41744
-9.40389
-9.36683
-9.3266
-9.31112
-9.31673
-9.31613
-9.33099
-9.3849
-9.47444
-9.56866
-9.68644
-9.8505
-10.0476
-10.2417
-10.4432
-10.6611
-10.8792
-11.0599
-11.1961
-11.2964
-11.3257
-11.2368
-11.0161
-10.6662
-10.1467
-9.40749
-8.43365
-7.2298
-5.75893
-3.98515
-1.89538
0.496529
3.20987
6.26562
9.65271
13.3334
17.303
21.5581
26.0575
30.7367
35.5606
40.5021
45.4871
50.4222
55.2542
59.9365
64.379
68.48
72.1755
75.4099
78.1042
80.1717
81.5584
82.2299
82.1342
81.2167
79.4613
76.8779
73.4573
69.1912
64.1173
58.2971
51.7728
44.5865
36.8243
28.5967
19.9861
11.073
1.97417
-7.18168
-16.2884
-25.2498
-33.9493
-42.26
-50.0904
-57.3703
-64.0029
-69.8976
-74.9993
-79.2757
-82.6846
-85.1823
-86.7716
-87.4789
-87.3126
-86.2839
-84.4456
-81.8717
-78.6149
-74.7286
-70.2986
-65.423
-60.1819
-54.6458
-48.9086
-43.0744
-37.217
-31.3968
-25.6944
-20.1921
-14.9423
-9.9732
-5.33931
-1.09548
2.74405
6.18576
9.20787
11.7925
13.9548
15.7291
17.1224
18.1451
18.8299
19.227
19.3601
19.2518
18.9407
18.4819
17.8998
17.2089
16.4494
15.6674
14.88
14.0883
13.3249
12.62
11.9823
11.4018
10.8986
10.4925
10.1807
9.94349
9.79133
9.72926
9.75383
9.84124
9.99612
10.2201
10.5065
10.8324
11.199
11.6074
12.0503
12.4995
12.9623
13.4482
13.9447
14.435
14.9187
15.4059
15.8867
16.3485
16.7899
17.2223
17.6379
18.0241
18.383
18.7337
19.0642
19.3635
19.6348
19.8961
20.1385
20.3512
20.5398
20.7211
20.8887
21.0299
21.1532
21.2706
21.3795
21.4731
21.5544
21.6343
21.7105
21.7725
21.8253
21.882
21.9372
21.9759
22.0056
22.0402
22.0723
22.0869
22.0911
22.1
22.1039
22.0926
22.0698
22.0461
22.0177
21.9726
21.9173
21.8644
21.8107
21.7464
21.6779
21.6185
21.5665
21.5119
21.4644
21.4386
21.4331
21.4452
21.4795
21.55
21.657
21.7923
21.9651
22.1885
22.4609
22.7732
23.1327
23.5504
24.0225
24.54
25.1048
25.7233
26.3894
27.0869
27.8178
28.5877
29.3856
30.1963
31.0151
31.8443
32.6715
33.4779
34.2601
35.0197
35.7445
36.4173
37.0352
37.5998
38.1023
38.5287
38.88
39.1625
39.3706
39.496
39.5424
39.5221
39.434
39.2716
39.0463
38.7763
38.4632
38.1073
37.7206
37.3198
36.9124
36.5008
36.0976
35.72
35.3748
35.061
34.7926
34.587
34.4453
34.3639
34.3518
34.4212
34.5709
34.7944
35.0942
35.4762
35.9364
36.4639
37.0567
37.716
38.4344
39.1973
40.0011
40.8464
41.7213
42.6075
43.5028
44.4095
45.3136
46.1976
47.0589
47.9023
48.7147
49.4838
50.2062
50.8869
51.5171
52.0843
52.5913
53.0471
53.4438
53.7741
54.0416
54.2558
54.4146
54.5157
54.5631
54.5664
54.5286
54.4472
54.3309
54.1947
54.0397
53.8661
53.6828
53.5044
53.3344
53.1764
53.0354
52.9245
52.8464
52.8
52.792
52.8313
52.9179
53.0452
53.2183
53.4433
53.7152
54.0249
54.3702
54.7541
55.1658
55.5901
56.0225
56.4606
56.8931
57.3082
57.694
58.0466
58.354
58.6014
58.7812
58.8928
58.9252
58.8662
58.712
58.4628
58.1142
57.6609
57.1014
56.4422
55.6819
54.8164
53.8526
52.8014
51.6651
50.4454
49.1499
47.7935
46.379
44.9062
43.3868
41.8356
40.2557
38.6468
37.0193
35.3854
33.7474
32.1063
30.4661
28.8344
27.213
25.5979
23.9946
22.4105
20.8419
19.2812
17.7332
16.2047
14.6908
13.1867
11.6928
10.2115
8.7424
7.2793
5.82492
4.38532
2.95796
1.53791
0.128597
-1.26229
-2.63698
-3.99737
-5.33999
-6.66085
-7.95673
-9.22971
-10.4757
-11.6877
-12.864
-14.0074
-15.1137
-16.1757
-17.1923
-18.1675
-19.0969
-19.9727
-20.7965
-21.5705
-22.293
-22.9581
-23.5689
-24.1275
-24.635
-25.0884
-25.4906
-25.8485
-26.1615
-26.4283
-26.6523
-26.8427
-26.9989
-27.1199
-27.2105
-27.2774
-27.3225
-27.3493
-27.3572
-27.3519
-27.334
-27.3019
-27.2565
-27.2038
-27.1406
-27.0605
-26.9651
-26.8579
-26.7339
-26.5872
-26.4173
-26.2274
-26.0122
-25.7624
-25.4822
-25.1804
-24.8498
-24.4881
-24.0968
-23.682
-23.2449
-22.7889
-22.3171
-21.8362
-21.3528
-20.8693
-20.3943
-19.9405
-19.5114
-19.1101
-18.7444
-18.4254
-18.1557
-17.9336
-17.7659
-17.6639
-17.6226
-17.6363
-17.7074
-17.8393
-18.025
-18.2557
-18.5277
-18.8397
-19.1815
-19.5396
-19.9096
-20.2884
-20.6653
-21.0272
-21.3701
-21.6893
-21.9783
-22.2298
-22.4389
-22.6047
-22.7247
-22.7964
-22.8186
-22.7961
-22.7279
-22.6116
-22.4534
-22.2588
-22.0315
-21.7756
-21.493
-21.1932
-20.8774
-20.5422
-20.1969
-19.8455
-19.4914
-19.1388
-18.7861
-18.434
-18.0865
-17.7424
-17.4034
-17.0744
-16.754
-16.438
-16.1305
-15.8359
-15.5541
-15.2838
-15.0283
-14.7936
-14.5801
-14.3898
-14.2241
-14.0866
-13.9803
-13.9032
-13.8593
-13.8538
-13.8856
-13.949
-14.0477
-14.186
-14.3584
-14.556
-14.7795
-15.0283
-15.2966
-15.5768
-15.8642
-16.1551
-16.4439
-16.7258
-16.9936
-17.2457
-17.4767
-17.6798
-17.8541
-18.0004
-18.116
-18.1973
-18.2466
-18.27
-18.2656
-18.2335
-18.1784
-18.1072
-18.0218
-17.9194
-17.809
-17.6992
-17.5904
-17.4825
-17.3796
-17.2867
-17.2042
-17.1292
-17.0648
-17.0125
-16.9714
-16.9402
-16.9165
-16.8994
-16.8879
-16.8819
-16.8769
-16.871
-16.8646
-16.8541
-16.8392
-16.8218
-16.8013
-16.773
-16.7421
-16.714
-16.6877
-16.663
-16.6426
-16.6307
-16.6283
-16.6351
-16.6537
-16.6883
-16.7384
-16.8014
-16.8793
-16.9722
-17.0798
-17.2013
-17.3323
-17.4709
-17.6152
-17.7605
-17.9032
-18.0412
-18.1708
-18.2886
-18.3904
-18.4751
-18.5404
-18.5862
-18.6082
-18.6054
-18.5799
-18.5288
-18.455
-18.3648
-18.2574
-18.1321
-17.9939
-17.8457
-17.6924
-17.5387
-17.386
-17.2405
-17.1033
-16.9701
-16.8487
-16.7445
-16.6563
-16.5861
-16.5326
-16.4973
-16.4787
-16.4712
-16.4761
-16.4956
-16.5252
-16.561
-16.6021
-16.65
-16.6993
-16.7462
-16.7898
-16.8319
-16.8684
-16.8965
-16.9163
-16.9302
-16.9361
-16.93
-16.9153
-16.8949
-16.8682
-16.8322
-16.791
-16.7499
-16.7061
-16.6571
-16.6073
-16.5588
-16.5122
-16.4692
-16.4279
-16.3902
-16.3563
-16.3232
-16.2924
-16.2672
-16.2443
-16.22
-16.1946
-16.1682
-16.1387
-16.1052
-16.0637
-16.0128
-15.9502
-15.8703
-15.7731
-15.6556
-15.5157
-15.3481
-15.1531
-14.9281
-14.6727
-14.3848
-14.0634
-13.708
-13.3187
-12.8929
-12.433
-11.9423
-11.421
-10.8731
-10.2981
-9.69842
-9.07889
-8.43898
-7.78557
-7.12705
-6.4633
-5.79404
-5.12641
-4.46876
-3.82065
-3.18014
-2.55468
-1.94992
-1.36631
-0.80591
-0.271225
0.234228
0.709779
1.15433
1.56667
1.94447
2.28632
2.59201
2.85918
3.08585
3.26972
3.40843
3.5013
3.54517
3.53802
3.48056
3.36929
3.20013
2.97237
2.6882
2.34365
1.93561
1.46573
0.937187
0.349085
-0.30116
-1.00735
-1.76206
-2.56436
-3.41329
-4.30062
-5.2181
-6.15971
-7.12
-8.08886
-9.05461
-10.0115
-10.9531
-11.8691
-12.75
-13.5879
-14.3769
-15.1085
-15.7777
-16.3779
-16.905
-17.3562
-17.73
-18.0243
-18.2395
-18.3783
-18.4444
-18.44
-18.3724
-18.2459
-18.0707
-17.8495
-17.5925
-17.305
-16.9977
-16.6752
-16.3469
-16.0188
-15.6986
-15.3921
-15.1037
-14.8411
-14.6084
-14.4095
-14.2447
-14.1206
-14.0375
-13.9982
-13.9988
-14.0441
-14.1351
-14.2696
-14.4406
-14.6533
-14.8984
-15.1793
-15.49
-15.8302
-16.1898
-16.5676
-16.953
-17.3426
-17.7208
-18.0832
-18.4162
-18.709
-18.9437
-19.1063
-19.1833
-19.1521
-18.9953
-18.6905
-18.2189
-17.5588
-16.6937
-15.6014
-14.2719
-12.6826
-10.8238
-8.68273
-6.25858
-3.54487
-0.545482
2.73195
6.27201
10.0555
14.0576
18.2459
22.5787
27.0144
31.5026
35.9896
40.4178
44.7231
48.8387
52.6995
56.24
59.3909
62.0866
64.2657
65.8712
66.8514
67.1602
66.7632
65.6344
63.7556
61.1208
57.736
53.6171
48.7932
43.3058
37.2049
30.5516
23.4174
15.8845
8.03851
-0.0308311
-8.22252
-16.4343
-24.5664
-32.52
-40.1965
-47.5038
-54.3529
-60.6641
-66.3663
-71.3984
-75.7098
-79.2611
-82.0271
-83.9941
-85.1604
-85.5384
-85.1492
-84.0258
-82.2117
-79.7567
-76.7239
-73.1796
-69.1957
-64.8479
-60.212
-55.3622
-50.3775
-45.3326
-40.2964
-35.3335
-30.5041
-25.8613
-21.4521
-17.3126
-13.4761
-9.96951
-6.80516
-3.98611
-1.51812
0.604246
2.39204
3.86667
5.04489
5.95477
6.6199
7.0743
7.34353
7.45816
7.44798
7.34356
7.17045
6.95106
6.70992
6.46645
6.23843
6.0361
5.8727
5.75238
5.68468
5.66924
5.70903
5.80194
5.94588
6.12826
6.35047
6.60416
6.88492
7.18023
7.48808
7.79817
8.10829
8.40881
8.698
8.96491
9.21297
9.43552
9.63377
9.80812
9.95626
10.0781
10.1751
10.2513
10.3055
10.3414
10.359
10.3618
10.3521
10.3374
10.3167
10.297
10.2779
10.2662
10.2617
10.2689
10.2895
10.3263
10.3816
10.4611
10.5635
10.6903
10.8423
11.0214
11.2264
11.456
11.7099
11.9875
12.2866
12.6032
12.9352
13.2796
13.6325
13.9883
14.3448
14.7
15.0476
15.3798
15.6966
15.9983
16.2782
16.5334
16.7617
16.9609
17.1307
17.2685
17.377
17.4579
17.5124
17.544
17.5546
17.5487
17.5288
17.4966
17.4587
17.4198
17.3844
17.3574
17.3418
17.3415
17.3602
17.4002
17.4642
17.5548
17.6727
17.8178
17.991
18.1913
18.4187
18.6707
18.9457
19.2411
19.5543
19.881
20.22
20.5689
20.9239
21.2838
21.6446
22.0053
22.3626
22.7134
23.0574
23.3917
23.7181
24.0386
24.3508
24.6528
24.9476
25.2358
25.5187
25.7969
26.0728
26.3488
26.6249
26.9012
27.1805
27.4664
27.7576
28.0536
28.3568
28.6686
28.9881
29.3162
29.6528
29.9957
30.3462
30.7063
31.0736
31.4468
31.8258
32.2105
32.5997
32.9931
33.3893
33.7869
34.1858
34.5842
34.9826
35.3822
35.7811
36.1768
36.5709
36.9654
37.359
37.7507
38.1418
38.5314
38.9213
39.3154
39.7118
40.1096
40.5115
40.9175
41.3293
41.7511
42.1806
42.6187
43.0661
43.5233
43.9908
44.4711
44.961
45.4622
45.9715
46.4884
47.0104
47.5348
48.0602
48.5841
49.1034
49.616
50.1176
50.6036
51.0728
51.5261
51.9567
52.3625
52.7407
53.0889
53.4069
53.6976
53.9572
54.1843
54.3818
54.5546
54.7014
54.824
54.9253
55.0079
55.075
55.133
55.1809
55.2212
55.2564
55.2895
55.3201
55.3487
55.3753
55.3982
55.4162
55.4289
55.4306
55.4181
55.3862
55.3296
55.2423
55.1203
54.9553
54.74
54.4691
54.137
53.7376
53.2661
52.7179
52.0912
51.3814
50.586
49.704
48.7367
47.6828
46.5445
45.3247
44.0256
42.6526
41.2106
39.705
38.1415
36.5266
34.8656
33.1665
31.4385
29.6858
27.9142
26.1298
24.339
22.5466
20.7566
18.9748
17.2075
15.4559
13.7212
12.0071
10.3171
8.65162
7.01018
5.39532
3.80949
2.25178
0.720349
-0.782429
-2.25546
-3.69917
-5.11334
-6.49782
-7.85114
-9.17404
-10.4677
-11.7295
-12.9577
-14.1528
-15.3152
-16.4427
-17.5344
-18.5889
-19.6064
-20.5846
-21.5207
-22.4165
-23.2728
-24.0872
-24.8584
-25.5865
-26.2708
-26.9115
-27.5092
-28.0632
-28.5746
-29.0428
-29.4656
-29.8461
-30.1869
-30.4864
-30.7459
-30.9665
-31.1498
-31.296
-31.4061
-31.4815
-31.5273
-31.5415
-31.5274
-31.4846
-31.4149
-31.32
-31.2001
-31.0582
-30.897
-30.7168
-30.5209
-30.3091
-30.0811
-29.8398
-29.5903
-29.3307
-29.0627
-28.7877
-28.5079
-28.2229
-27.937
-27.6486
-27.3572
-27.0655
-26.7748
-26.4859
-26.2001
-25.918
-25.64
-25.3671
-25.1026
-24.8453
-24.5948
-24.3524
-24.1202
-23.8968
-23.6829
-23.4778
-23.2808
-23.0928
-22.9166
-22.7482
-22.5842
-22.4269
-22.2771
-22.1323
-21.9918
-21.8543
-21.7176
-21.5814
-21.4463
-21.3089
-21.1673
-21.0212
-20.8693
-20.7115
-20.5486
-20.3788
-20.2036
-20.0221
-19.8328
-19.638
-19.4385
-19.2353
-19.0316
-18.8265
-18.6191
-18.4142
-18.2118
-18.0156
-17.8293
-17.6526
-17.4894
-17.339
-17.2006
-17.078
-16.9712
-16.8819
-16.8121
-16.7607
-16.7291
-16.7159
-16.7197
-16.741
-16.7804
-16.8349
-16.9012
-16.9807
-17.0704
-17.1705
-17.2801
-17.3968
-17.5205
-17.6485
-17.7808
-17.9153
-18.0486
-18.1822
-18.3159
-18.449
-18.5807
-18.711
-18.8399
-18.9669
-19.0895
-19.2101
-19.3325
-19.4533
-19.5714
-19.6868
-19.797
-19.9043
-20.0105
-20.1121
-20.207
-20.2955
-20.3756
-20.4472
-20.5121
-20.5661
-20.6062
-20.6329
-20.6465
-20.645
-20.6258
-20.5901
-20.5385
-20.4696
-20.3818
-20.2772
-20.1568
-20.0208
-19.8695
-19.7062
-19.5342
-19.3539
-19.1668
-18.976
-18.7849
-18.5947
-18.4075
-18.226
-18.0521
-17.8881
-17.7372
-17.6
-17.4752
-17.3663
-17.2729
-17.1965
-17.1386
-17.0975
-17.0731
-17.0642
-17.0712
-17.0912
-17.1239
-17.1667
-17.2171
-17.2746
-17.3379
-17.4047
-17.4734
-17.542
-17.6082
-17.6711
-17.7306
-17.7844
-17.8275
-17.8626
-17.8916
-17.9115
-17.9206
-17.9199
-17.9093
-17.8891
-17.8615
-17.8245
-17.7761
-17.719
-17.6552
-17.5839
-17.5044
-17.4191
-17.3278
-17.2319
-17.1362
-17.0367
-16.9337
-16.8279
-16.7192
-16.6084
-16.4935
-16.3762
-16.2587
-16.1397
-16.0204
-15.8996
-15.7745
-15.6481
-15.5203
-15.3915
-15.264
-15.1371
-15.0105
-14.8866
-14.7666
-14.6517
-14.5445
-14.4449
-14.3565
-14.2792
-14.2113
-14.1578
-14.123
-14.106
-14.1087
-14.1314
-14.1745
-14.2379
-14.3217
-14.4246
-14.5446
-14.6812
-14.8351
-15.0015
-15.1769
-15.36
-15.5487
-15.7386
-15.9251
-16.1062
-16.2804
-16.4431
-16.5904
-16.7211
-16.8329
-16.924
-16.9959
-17.0457
-17.0711
-17.0739
-17.0544
-17.0138
-16.9547
-16.8773
-16.7814
-16.6706
-16.5485
-16.4148
-16.2699
-16.1166
-15.9559
-15.7887
-15.615
-15.4343
-15.2456
-15.0484
-14.839
-14.618
-14.3851
-14.1363
-13.8679
-13.5781
-13.2639
-12.923
-12.5528
-12.1507
-11.7141
-11.2428
-10.7347
-10.191
-9.61275
-9.00018
-8.35538
-7.68036
-6.97927
-6.25443
-5.50805
-4.74642
-3.97399
-3.1966
-2.41677
-1.64308
-0.882512
-0.138558
0.581986
1.27484
1.93672
2.56134
3.14331
3.68079
4.17107
4.61105
4.99978
5.33426
5.61133
5.83229
5.99656
6.10517
6.15909
6.1587
6.10393
5.99772
5.84491
5.64467
5.39633
5.10545
4.77723
4.41121
4.00678
3.56938
3.10285
2.60796
2.08983
1.54898
0.987922
0.40872
-0.18708
-0.796421
-1.41744
-2.04741
-2.68454
-3.32684
-3.97283
-4.61966
-5.26597
-5.90973
-6.54834
-7.18045
-7.80559
-8.42056
-9.02612
-9.61777
-10.192
-10.7492
-11.2878
-11.8052
-12.3004
-12.7713
-13.2173
-13.6373
-14.0334
-14.4011
-14.7418
-15.0529
-15.3351
-15.5871
-15.8111
-16.0052
-16.1753
-16.3171
-16.4317
-16.5208
-16.5883
-16.635
-16.6637
-16.6763
-16.6746
-16.6636
-16.6417
-16.618
-16.5943
-16.5772
-16.5684
-16.5739
-16.5948
-16.6376
-16.701
-16.7926
-16.9105
-17.0606
-17.2393
-17.4497
-17.6854
-17.9477
-18.2228
-18.5129
-18.8047
-19.093
-19.3636
-19.6038
-19.7952
-19.9215
-19.9665
-19.9054
-19.7191
-19.3822
-18.8761
-18.1725
-17.2535
-16.0925
-14.6734
-12.9751
-10.984
-8.68803
-6.08449
-3.1673
0.0574448
3.58345
7.39353
11.4687
15.7802
20.2937
24.9667
29.7525
34.5972
39.4411
44.2184
48.8629
53.3023
57.4649
61.2815
64.676
67.5774
69.9198
71.6388
72.682
73.0042
72.565
71.3349
69.2982
66.4491
62.7945
58.3546
53.1614
47.2616
40.7105
33.5739
25.933
17.8784
9.50254
0.903955
-7.80754
-16.5201
-25.1267
-33.5224
-41.599
-49.2537
-56.3963
-62.9452
-68.8228
-73.9642
-78.3196
-81.8519
-84.5349
-86.3567
-87.3206
-87.4414
-86.7487
-85.2831
-83.0957
-80.2462
-76.804
-72.8451
-68.4494
-63.702
-58.6857
-53.4845
-48.1822
-42.8567
-37.5852
-32.4396
-27.4806
-22.759
-18.3265
-14.221
-10.4727
-7.10381
-4.12582
-1.53949
0.655807
2.47118
3.92332
5.03432
5.83156
6.35063
6.61866
6.67359
6.5475
6.27642
5.89291
5.43078
4.91767
4.3825
3.84772
3.33329
2.8562
2.42729
2.05793
1.7519
1.51492
1.34713
1.24695
1.20729
1.22556
1.29202
1.4014
1.53728
1.70073
1.88233
2.07695
2.27048
2.46705
2.65752
2.84497
3.0213
3.19513
3.36671
3.54202
3.72568
3.92368
4.14421
4.39289
4.67605
5.00141
5.38214
5.81702
6.31336
6.87248
7.50113
8.19418
8.95325
9.77123
10.6423
11.5602
12.5184
13.5028
14.5031
15.504
16.492
17.4501
18.3632
19.2151
19.9884
20.6708
21.2513
21.7155
22.0524
22.2554
22.3179
22.2379
22.0136
21.6495
21.1535
20.5308
19.791
18.9481
18.0191
17.0186
15.9613
14.8699
13.7663
12.6677
11.5916
10.5592
9.58946
8.69809
7.89553
7.19868
6.6206
6.16739
5.84279
5.65225
5.59962
5.67996
5.88595
6.2149
6.66301
7.2162
7.86055
8.58755
9.38527
10.2401
11.1405
12.071
13.0176
13.9695
14.9126
15.8397
16.7425
17.6123
18.4415
19.2262
19.9664
20.6562
21.293
21.8789
22.4149
22.9035
23.347
23.7504
24.1183
24.4542
24.7645
25.0532
25.3258
25.5874
25.8397
26.0916
26.3524
26.6213
26.9022
27.1998
27.5172
27.8561
28.2203
28.6101
29.0272
29.472
29.9418
30.4392
30.9628
31.5126
32.0869
32.6832
33.2954
33.9244
34.5677
35.2213
35.8801
36.5424
37.2045
37.8636
38.5147
39.1561
39.7893
40.4085
41.0096
41.5928
42.1607
42.7101
43.242
43.7553
44.2501
44.73
45.1969
45.6533
46.1005
46.543
46.987
47.4325
47.8848
48.3451
48.8155
49.2987
49.799
50.3167
50.8524
51.4068
51.9793
52.5699
53.1824
53.8111
54.4525
55.1052
55.7701
56.4396
57.1072
57.7719
58.4326
59.0823
59.7175
60.3345
60.9278
61.496
62.0383
62.5503
63.0334
63.482
63.8946
64.272
64.6149
64.9224
65.1949
65.4344
65.643
65.8211
65.9748
66.1016
66.2015
66.2772
66.3299
66.3615
66.3759
66.3695
66.3428
66.2951
66.2263
66.1339
66.0175
65.8739
65.6997
65.4919
65.2483
64.9653
64.6384
64.264
63.8408
63.3641
62.8331
62.2425
61.5856
60.8645
60.0819
59.2321
58.3132
57.3277
56.2769
55.1608
53.9811
52.7402
51.4409
50.0851
48.6753
47.2171
45.7167
44.1753
42.5973
40.9874
39.3477
37.6835
35.9985
34.2971
32.5846
30.8625
29.1369
27.4094
25.6821
23.9575
22.2399
20.5316
18.8341
17.1499
15.4798
13.8279
12.1979
10.5903
9.00731
7.45222
5.92953
4.43984
2.9821
1.56276
0.187475
-1.14398
-2.4329
-3.67224
-4.85642
-5.98643
-7.06109
-8.07714
-9.03165
-9.92523
-10.7585
-11.5296
-12.2386
-12.8862
-13.4742
-14.0034
-14.4784
-14.9005
-15.2708
-15.5943
-15.8746
-16.1167
-16.3255
-16.5048
-16.6607
-16.7974
-16.9204
-17.0332
-17.1408
-17.2468
-17.356
-17.4698
-17.5907
-17.7217
-17.8669
-18.0243
-18.1943
-18.377
-18.5729
-18.779
-18.9947
-19.2176
-19.4441
-19.6718
-19.8981
-20.1203
-20.3365
-20.5412
-20.729
-20.8993
-21.052
-21.182
-21.2889
-21.3704
-21.4233
-21.4476
-21.4456
-21.4144
-21.3535
-21.2631
-21.1456
-21.0002
-20.8307
-20.6354
-20.414
-20.1697
-19.9034
-19.6157
-19.3104
-18.9865
-18.646
-18.2881
-17.9141
-17.5248
-17.1211
-16.7043
-16.278
-15.8419
-15.395
-14.9423
-14.4894
-14.0368
-13.587
-13.1442
-12.7139
-12.2995
-11.9027
-11.5309
-11.1932
-10.8908
-10.6215
-10.3963
-10.2201
-10.0965
-10.031
-10.0229
-10.0751
-10.1873
-10.3552
-10.5803
-10.8628
-11.1968
-11.5753
-11.9941
-12.4462
-12.9246
-13.4208
-13.9261
-14.4356
-14.9354
-15.4129
-15.8618
-16.2764
-16.6459
-16.9609
-17.2163
-17.4082
-17.5317
-17.5823
-17.5603
-17.467
-17.3037
-17.072
-16.7776
-16.4265
-16.026
-15.5842
-15.1094
-14.6119
-14.1017
-13.585
-13.0757
-12.5864
-12.1249
-11.6994
-11.3183
-10.9905
-10.7206
-10.5128
-10.3704
-10.2954
-10.288
-10.3453
-10.4672
-10.6512
-10.8918
-11.1825
-11.5171
-11.8888
-12.2895
-12.7096
-13.1419
-13.5784
-14.0117
-14.4338
-14.8383
-15.2193
-15.5723
-15.8927
-16.1773
-16.4249
-16.6348
-16.8052
-16.9385
-17.0376
-17.1046
-17.1431
-17.1562
-17.1495
-17.1272
-17.0951
-17.056
-17.0149
-16.9762
-16.9422
-16.9166
-16.9024
-16.9017
-16.915
-16.9431
-16.9889
-17.0493
-17.124
-17.2097
-17.3035
-17.4039
-17.506
-17.6094
-17.7104
-17.8078
-17.8986
-17.9809
-18.0566
-18.1207
-18.1699
-18.2057
-18.228
-18.2377
-18.2326
-18.2162
-18.1906
-18.1568
-18.116
-18.0708
-18.0234
-17.9747
-17.9284
-17.8838
-17.8414
-17.8026
-17.7678
-17.7367
-17.7089
-17.6838
-17.6618
-17.6402
-17.6157
-17.5882
-17.5589
-17.5237
-17.4823
-17.4317
-17.3662
-17.2885
-17.1989
-17.0962
-16.9804
-16.852
-16.7112
-16.5601
-16.4014
-16.2358
-16.0671
-15.8965
-15.7269
-15.5607
-15.3981
-15.2433
-15.0997
-14.9683
-14.8497
-14.7464
-14.6578
-14.5852
-14.5314
-14.4926
-14.4668
-14.4539
-14.4528
-14.4613
-14.4767
-14.4973
-14.522
-14.548
-14.5716
-14.5923
-14.609
-14.6209
-14.6298
-14.6325
-14.6297
-14.621
-14.605
-14.5849
-14.5629
-14.5394
-14.5139
-14.4901
-14.4696
-14.4538
-14.445
-14.4433
-14.4507
-14.4665
-14.4905
-14.5227
-14.5624
-14.609
-14.6622
-14.7192
-14.7789
-14.8394
-14.8987
-14.9548
-15.0079
-15.0543
-15.0922
-15.1201
-15.1394
-15.1477
-15.1423
-15.1262
-15.1012
-15.0677
-15.0243
-14.9757
-14.9278
-14.8799
-14.8319
-14.7895
-14.7592
-14.7404
-14.7336
-14.7428
-14.7719
-14.8205
-14.8883
-14.9766
-15.0842
-15.211
-15.3528
-15.509
-15.6786
-15.8554
-16.0348
-16.2126
-16.3869
-16.5487
-16.6897
-16.8072
-16.8941
-16.9467
-16.9592
-16.9283
-16.8519
-16.7251
-16.5451
-16.3107
-16.0195
-15.6735
-15.2764
-14.8266
-14.323
-13.7725
-13.178
-12.5448
-11.8784
-11.1833
-10.4649
-9.72846
-8.97956
-8.22369
-7.46625
-6.71167
-5.96531
-5.23103
-4.51232
-3.81298
-3.13513
-2.48213
-1.85762
-1.26162
-0.69527
-0.159546
0.346153
0.819646
1.25907
1.66557
2.04011
2.3813
2.68753
2.95955
3.19885
3.40203
3.56717
3.69453
3.78454
3.8337
3.83855
3.79994
3.71772
3.58945
3.41691
3.19712
2.92748
2.61032
2.24589
1.83541
1.37939
0.881298
0.342382
-0.232379
-0.837868
-1.47098
-2.12812
-2.80314
-3.48758
-4.17853
-4.87128
-5.5585
-6.23694
-6.89857
-7.53619
-8.14718
-8.72916
-9.27669
-9.78452
-10.2531
-10.682
-11.0695
-11.4171
-11.7241
-11.9931
-12.225
-12.4251
-12.5942
-12.7346
-12.8515
-12.9503
-13.0343
-13.1076
-13.1741
-13.2395
-13.3048
-13.3755
-13.4505
-13.5331
-13.6235
-13.7272
-13.8399
-13.9625
-14.0934
-14.2347
-14.382
-14.532
-14.6851
-14.8397
-14.9947
-15.144
-15.2915
-15.4336
-15.5728
-15.7084
-15.8405
-15.9673
-16.0917
-16.2092
-16.3269
-16.4439
-16.5621
-16.6748
-16.7885
-16.8994
-17.008
-17.1031
-17.188
-17.2543
-17.2972
-17.3051
-17.2694
-17.1784
-17.017
-16.7692
-16.4181
-15.9476
-15.3367
-14.5705
-13.626
-12.4838
-11.1262
-9.54282
-7.71365
-5.63044
-3.28121
-0.663216
2.22631
5.38163
8.79594
12.4535
16.3354
20.4166
24.6653
29.0419
33.5064
38.0117
42.5043
46.926
51.2194
55.323
59.1733
62.7073
65.8614
68.5725
70.7848
72.4452
73.5062
73.9269
73.6735
72.7217
71.0557
68.6671
65.5639
61.7641
57.2922
52.1838
46.487
40.2603
33.5685
26.4837
19.0878
11.4659
3.70846
-4.09237
-11.8429
-19.4501
-26.8245
-33.8809
-40.5363
-46.714
-52.3498
-57.3871
-61.7772
-65.4836
-68.4791
-70.7495
-72.2903
-73.1073
-73.2194
-72.6527
-71.4457
-69.6457
-67.3032
-64.4757
-61.2266
-57.6237
-53.7342
-49.6248
-45.3657
-41.0218
-36.6568
-32.3287
-28.0925
-23.994
-20.0787
-16.3817
-12.9332
-9.75487
-6.86309
-4.26814
-1.97111
0.0352994
1.75517
3.20653
4.40156
5.36024
6.1052
6.66456
7.0596
7.31649
7.46012
7.51672
7.50808
7.45716
7.38117
7.29525
7.21625
7.15305
7.11804
7.11419
7.15074
7.2323
7.35789
7.52309
7.72929
7.96635
8.23551
8.52946
8.84543
9.17203
9.50904
9.84545
10.1821
10.511
10.8303
11.1296
11.4135
11.676
11.9197
12.1449
12.3505
12.5364
12.7046
12.8593
12.9996
13.1291
13.2487
13.3621
13.4708
13.582
13.6928
13.8071
13.9248
14.0491
14.1789
14.3193
14.4658
14.6175
14.7744
14.9363
15.1004
15.2657
15.4298
15.5881
15.7406
15.8886
16.0262
16.1507
16.2616
16.3576
16.4379
16.5011
16.5493
16.5856
16.6091
16.6221
16.6271
16.6283
16.6284
16.6319
16.6429
16.6649
16.7035
16.7635
16.8483
16.962
17.108
17.2871
17.5042
17.7614
18.0591
18.3974
18.7758
19.1928
19.6452
20.1313
20.6467
21.1861
21.7453
22.3192
22.9021
23.4897
24.0745
24.6496
25.2108
25.7543
26.2732
26.7598
27.2139
27.6344
28.0161
28.3565
28.6552
28.9103
29.1237
29.2941
29.4255
29.5237
29.5882
29.6225
29.6311
29.6181
29.5877
29.5431
29.4906
29.4343
29.3796
29.3327
29.2968
29.2754
29.2722
29.2917
29.3352
29.4056
29.5048
29.6329
29.7921
29.9846
30.2085
30.4628
30.7473
31.0567
31.3931
31.7564
32.1426
32.5494
32.974
33.4145
33.8682
34.33
34.7998
35.2783
35.7598
36.2426
36.7237
37.2006
37.6724
38.1372
38.5943
39.0447
39.4853
39.9133
40.329
40.7337
41.1262
41.508
41.8772
42.2307
42.5721
42.905
43.2266
43.5357
43.8346
44.126
44.409
44.6851
44.9554
45.2208
45.4819
45.7398
45.9962
46.2536
46.5111
46.7676
47.0253
47.2881
47.5528
47.8186
48.0862
48.3584
48.6313
48.9058
49.1792
49.4486
49.7135
49.9755
50.2296
50.4734
50.7057
50.9266
51.1331
51.324
51.4973
51.6514
51.7862
51.9029
51.9998
52.0771
52.1368
52.1837
52.2157
52.2333
52.2402
52.2393
52.2327
52.2276
52.2217
52.2168
52.2147
52.2171
52.2244
52.2355
52.2498
52.2674
52.2842
52.2965
52.2997
52.2889
52.2575
52.1982
52.104
51.9686
51.7826
51.5357
51.2218
50.8382
50.3725
49.8168
49.1656
48.4125
47.5557
46.595
45.5262
44.3499
43.0672
41.6794
40.1917
38.6111
36.9427
35.1924
33.3702
31.4863
29.55
27.57
25.5591
23.5302
21.4914
19.45
17.4189
15.4071
13.4227
11.4747
9.56863
7.7104
5.90445
4.15259
2.45894
0.826386
-0.745767
-2.2564
-3.70801
-5.10352
-6.44449
-7.7354
-8.97804
-10.175
-11.3307
-12.4487
-13.5326
-14.5869
-15.6147
-16.6194
-17.6036
-18.5681
-19.5156
-20.4472
-21.3632
-22.264
-23.1495
-24.0212
-24.8757
-25.7087
-26.5209
-27.3122
-28.0777
-28.8131
-29.5161
-30.1863
-30.8182
-31.4067
-31.9505
-32.4465
-32.8923
-33.2851
-33.6223
-33.9055
-34.1299
-34.2918
-34.3934
-34.4361
-34.42
-34.3465
-34.2172
-34.0383
-33.8092
-33.5314
-33.2114
-32.8564
-32.469
-32.0548
-31.6192
-31.1697
-30.7101
-30.2467
-29.7852
-29.3312
-28.8889
-28.4625
-28.0556
-27.6736
-27.3173
-26.9889
-26.6886
-26.4191
-26.1776
-25.9601
-25.7669
-25.5995
-25.4509
-25.3144
-25.1897
-25.0744
-24.962
-24.8504
-24.7335
-24.6069
-24.4678
-24.312
-24.1381
-23.9461
-23.7332
-23.501
-23.2472
-22.972
-22.6782
-22.369
-22.0459
-21.7119
-21.3711
-21.0254
-20.6815
-20.3445
-20.0171
-19.706
-19.4128
-19.143
-18.8978
-18.6752
-18.4816
-18.3217
-18.1932
-18.0933
-18.0249
-17.9891
-17.9823
-18.0029
-18.0485
-18.1176
-18.2059
-18.3088
-18.4247
-18.5479
-18.6771
-18.8108
-18.9448
-19.0755
-19.2008
-19.3166
-19.4242
-19.5251
-19.6149
-19.692
-19.7573
-19.8103
-19.852
-19.8832
-19.9046
-19.9188
-19.9255
-19.9249
-19.9194
-19.9092
-19.8963
-19.8813
-19.8659
-19.8509
-19.8369
-19.8248
-19.816
-19.8123
-19.8133
-19.8195
-19.8314
-19.8491
-19.8732
-19.9033
-19.9416
-19.9896
-20.0463
-20.1125
-20.1892
-20.2771
-20.3756
-20.4826
-20.6005
-20.7292
-20.8677
-21.0151
-21.1714
-21.3388
-21.5124
-21.6875
-21.8658
-22.0443
-22.2219
-22.3965
-22.5668
-22.7337
-22.892
-23.039
-23.1741
-23.2956
-23.4022
-23.4929
-23.5685
-23.6307
-23.6775
-23.7109
-23.7306
-23.7372
-23.7329
-23.7203
-23.7013
-23.6795
-23.6548
-23.6285
-23.6035
-23.5806
-23.5627
-23.5494
-23.544
-23.5499
-23.5645
-23.588
-23.6209
-23.6615
-23.7104
-23.7694
-23.8355
-23.9051
-23.9788
-24.0563
-24.1344
-24.2123
-24.2879
-24.3578
-24.4229
-24.4814
-24.5324
-24.5713
-24.6003
-24.6214
-24.631
-24.6263
-24.6091
-24.5791
-24.536
-24.4834
-24.4172
-24.335
-24.238
-24.1255
-23.9973
-23.8528
-23.6909
-23.5107
-23.3126
-23.0966
-22.8604
-22.6077
-22.3339
-22.0364
-21.7171
-21.3766
-21.0152
-20.6343
-20.2342
-19.8177
-19.3865
-18.9414
-18.4882
-18.0314
-17.5747
-17.1223
-16.6795
-16.2553
-15.8529
-15.4739
-15.1275
-14.8193
-14.5551
-14.3408
-14.1798
-14.0758
-14.0319
-14.0489
-14.1291
-14.2748
-14.4822
-14.7512
-15.0756
-15.4515
-15.8721
-16.3299
-16.8176
-17.328
-17.8508
-18.3764
-18.8948
-19.3971
-19.8721
-20.3106
-20.7033
-21.0428
-21.3222
-21.5332
-21.6734
-21.7429
-21.7372
-21.6537
-21.4962
-21.2674
-20.973
-20.6178
-20.2097
-19.7569
-19.2686
-18.7534
-18.2207
-17.6807
-17.1428
-16.6162
-16.108
-15.627
-15.1775
-14.7616
-14.3839
-14.0433
-13.7425
-13.4789
-13.2485
-13.0496
-12.8727
-12.705
-12.5429
-12.3758
-12.1953
-11.9922
-11.7565
-11.4812
-11.1559
-10.7689
-10.3184
-9.80159
-9.21368
-8.55313
-7.82149
-7.02466
-6.16317
-5.2378
-4.26076
-3.2415
-2.18998
-1.1181
-0.0368361
1.03995
2.10133
3.13534
4.12901
5.07251
5.9535
6.76318
7.49126
8.12598
8.66511
9.10378
9.43873
9.66645
9.78778
9.8045
9.71786
9.52954
9.24468
8.86998
8.40856
7.86634
7.25077
6.56868
5.82677
5.03265
4.19217
3.31078
2.39673
1.45486
0.491382
-0.48522
-1.47245
-2.46361
-3.45587
-4.44588
-5.429
-6.40079
-7.35881
-8.2984
-9.21719
-10.1153
-10.9862
-11.8269
-12.6358
-13.4126
-14.1521
-14.8516
-15.5089
-16.1233
-16.6924
-17.2159
-17.6915
-18.1218
-18.5031
-18.8351
-19.1184
-19.3541
-19.5435
-19.6915
-19.7966
-19.8634
-19.8916
-19.8867
-19.8481
-19.7815
-19.688
-19.5727
-19.4378
-19.288
-19.1266
-18.9584
-18.7863
-18.6096
-18.4367
-18.2661
-18.1077
-17.9625
-17.838
-17.7364
-17.6623
-17.616
-17.603
-17.6195
-17.6746
-17.7696
-17.9045
-18.0742
-18.2806
-18.5157
-18.7795
-19.057
-19.347
-19.6336
-19.9095
-20.1545
-20.3563
-20.4958
-20.5517
-20.5025
-20.3232
-19.9972
-19.4914
-18.7798
-17.8391
-16.649
-15.185
-13.4355
-11.377
-9.00155
-6.297
-3.26345
0.100122
3.78403
7.77511
12.0473
16.5774
21.3308
26.266
31.3334
36.48
41.6478
46.7709
51.7774
56.5983
61.1608
65.3884
69.2058
72.5416
75.3271
77.4964
78.9895
79.7544
79.7466
78.9329
77.288
74.8011
71.473
67.315
62.3516
56.6203
50.1722
43.067
35.3759
27.1829
18.5802
9.6647
0.538708
-8.68826
-17.9027
-26.9962
-35.8603
-44.3878
-52.4795
-60.0395
-66.9804
-73.2274
-78.7181
-83.3974
-87.2252
-90.1749
-92.2316
-93.3974
-93.6857
-93.1223
-91.7466
-89.6059
-86.7582
-83.2702
-79.2095
-74.6608
-69.7111
-64.441
-58.9331
-53.2737
-47.5435
-41.8216
-36.1806
-30.6877
-25.4035
-20.379
-15.6532
-11.2673
-7.24924
-3.61716
-0.382321
2.45267
4.89595
6.95476
8.65099
10.0015
11.0367
11.7818
12.2716
12.5355
12.6064
12.5183
12.3056
11.9962
11.619
11.2002
10.7596
10.3204
9.89541
9.50199
9.14678
8.84097
8.5879
8.39193
8.25051
8.16539
8.12629
8.13516
8.18571
8.27374
8.38876
8.52956
8.68297
8.85097
9.0229
9.2006
9.37357
9.54584
9.71252
9.87522
10.0334
10.1875
10.3403
10.4908
10.645
10.8004
10.9573
11.1188
11.2912
11.471
11.6613
11.8622
12.0775
12.3042
12.5474
12.8013
13.0666
13.3406
13.6245
13.914
14.2101
14.5067
14.8011
15.0906
15.3726
15.6443
15.9054
16.1508
16.375
16.5785
16.7607
16.9193
17.0523
17.1603
17.2424
17.2998
17.3363
17.3508
17.3429
17.3184
17.282
17.2358
17.1854
17.1331
17.0819
17.0376
17.0061
16.9911
16.9958
17.0248
17.0784
17.163
17.2815
17.4353
17.6263
17.8545
18.1202
18.4226
18.7621
19.1351
19.5395
19.9722
20.4287
20.9064
21.3998
21.9054
22.4176
22.9335
23.449
23.9594
24.4593
24.9471
25.4181
25.87
26.3011
26.7094
27.0976
27.4598
27.7936
28.1014
28.3847
28.6433
28.8797
29.095
29.2877
29.4621
29.6213
29.7669
29.9021
30.0282
30.1452
30.2577
30.3662
30.4745
30.5868
30.7027
30.823
30.9504
31.0877
31.2363
31.3972
31.5715
31.7618
31.9683
32.192
32.4342
32.6945
32.9748
33.274
33.5938
33.9333
34.2934
34.6767
35.0794
35.499
35.9357
36.3881
36.8541
37.3315
37.8189
38.3155
38.8178
39.3232
39.8303
40.3362
40.84
41.3416
41.837
42.3259
42.8063
43.2751
43.7344
44.1863
44.6285
45.0633
45.4902
45.909
46.3222
46.7348
47.1456
47.5584
47.9726
48.3885
48.809
49.2367
49.6717
50.1157
50.5691
51.0336
51.5071
51.9886
52.4787
52.9797
53.4871
53.9982
54.5131
55.0331
55.5534
56.0734
56.5906
57.1063
57.6159
58.1181
58.6116
59.097
59.5705
60.033
60.4829
60.9193
61.3416
61.7472
62.1374
62.5157
62.8767
63.2181
63.5409
63.8441
64.1252
64.3848
64.6188
64.8257
65.0013
65.1428
65.2464
65.3103
65.3289
65.2958
65.2095
65.0683
64.8651
64.5937
64.2526
63.8398
63.3486
62.7756
62.1186
61.3768
60.5457
59.6257
58.6144
57.5102
56.3136
55.0251
53.6467
52.1775
50.6214
48.9829
47.2646
45.47
43.6039
41.6734
39.682
37.6345
35.5382
33.4005
31.2275
29.0276
26.8056
24.5679
22.3233
20.0828
17.8488
15.6231
13.418
11.2444
9.10293
6.99741
4.93594
2.92317
0.962276
-0.944372
-2.79211
-4.57634
-6.29732
-7.95589
-9.54792
-11.0708
-12.5268
-13.9161
-15.2394
-16.4961
-17.6904
-18.8277
-19.9053
-20.9221
-21.8852
-22.7993
-23.6641
-24.4818
-25.2562
-25.9912
-26.688
-27.3449
-27.9696
-28.571
-29.1451
-29.6933
-30.2191
-30.7234
-31.2084
-31.6755
-32.1272
-32.5671
-32.993
-33.4026
-33.8005
-34.191
-34.5693
-34.9356
-35.2901
-35.6329
-35.9631
-36.2806
-36.5843
-36.875
-37.15
-37.4104
-37.6547
-37.8836
-38.0936
-38.2871
-38.4607
-38.6123
-38.7426
-38.8512
-38.9385
-39.0076
-39.0545
-39.0805
-39.085
-39.0687
-39.0318
-38.9785
-38.9069
-38.817
-38.7106
-38.5869
-38.4502
-38.3036
-38.1465
-37.9842
-37.8159
-37.6417
-37.4643
-37.2863
-37.1087
-36.9344
-36.7626
-36.5948
-36.4322
-36.2769
-36.1273
-35.9835
-35.8456
-35.7139
-35.5855
-35.4585
-35.3336
-35.2068
-35.0785
-34.9512
-34.8196
-34.6793
-34.5315
-34.3782
-34.2155
-34.0426
-33.8588
-33.6629
-33.4574
-33.243
-33.0204
-32.7917
-32.5593
-32.3266
-32.0947
-31.8646
-31.6414
-31.4304
-31.2322
-31.049
-30.8839
-30.7407
-30.6198
-30.5227
-30.4518
-30.4072
-30.3881
-30.395
-30.4269
-30.4797
-30.5524
-30.6459
-30.7551
-30.8732
-30.999
-31.1328
-31.2677
-31.3985
-31.5233
-31.6404
-31.746
-31.8348
-31.9074
-31.9628
-32.001
-32.0229
-32.0274
-32.0184
-31.9955
-31.9572
-31.9081
-31.8547
-31.7976
-31.7381
-31.6799
-31.6263
-31.5803
-31.5409
-31.5134
-31.5027
-31.508
-31.5283
-31.5642
-31.6146
-31.6805
-31.7608
-31.8533
-31.9583
-32.0716
-32.1877
-32.3059
-32.4257
-32.5429
-32.652
-32.7509
-32.838
-32.9101
-32.9641
-32.9988
-33.0124
-33.0036
-32.9736
-32.9182
-32.8378
-32.7324
-32.5984
-32.4398
-32.2557
-32.0492
-31.824
-31.5791
-31.3173
-31.0406
-30.7483
-30.4448
-30.1327
-29.8152
-29.4958
-29.1765
-28.8614
-28.5524
-28.2532
-27.9653
-27.6945
-27.4411
-27.2046
-26.9896
-26.7984
-26.6323
-26.4914
-26.3771
-26.2903
-26.2304
-26.1957
-26.1856
-26.2011
-26.2386
-26.2941
-26.367
-26.4554
-26.5564
-26.6637
-26.7774
-26.8996
-27.0237
-27.1462
-27.266
-27.3807
-27.489
-27.5908
-27.684
-27.7675
-27.8411
-27.9039
-27.9568
-28.0014
-28.0377
-28.0653
-28.0853
-28.099
-28.107
-28.1098
-28.1068
-28.0998
-28.0874
-28.0671
-28.0403
-28.006
-27.9634
-27.9111
-27.8476
-27.776
-27.691
-27.5877
-27.4677
-27.3326
-27.1796
-27.0063
-26.8132
-26.5999
-26.3681
-26.1175
-25.8501
-25.5666
-25.2698
-24.9625
-24.6468
-24.3278
-24.0063
-23.6847
-23.3672
-23.0588
-22.7613
-22.4746
-22.2037
-21.9523
-21.7207
-21.5085
-21.3176
-21.15
-21.0041
-20.8751
-20.7655
-20.6761
-20.6021
-20.541
-20.4902
-20.448
-20.4102
-20.3717
-20.3305
-20.2862
-20.2343
-20.1699
-20.0931
-20.0046
-19.9001
-19.7778
-19.6377
-19.4803
-19.3055
-19.1112
-18.8996
-18.6735
-18.4324
-18.1787
-17.9131
-17.637
-17.3527
-17.0591
-16.7597
-16.4577
-16.1539
-15.8508
-15.5492
-15.2517
-14.9589
-14.6692
-14.3867
-14.1178
-13.8583
-13.6057
-13.3652
-13.1394
-12.9278
-12.7318
-12.551
-12.3839
-12.2334
-12.0964
-11.977
-11.8787
-11.7976
-11.7324
-11.6843
-11.6544
-11.64
-11.6395
-11.6522
-11.6778
-11.7128
-11.7522
-11.7969
-11.8456
-11.8946
-11.9418
-11.9841
-12.0204
-12.0467
-12.0605
-12.0596
-12.0447
-12.0102
-11.9534
-11.8747
-11.7731
-11.6486
-11.5019
-11.3327
-11.1419
-10.9311
-10.7018
-10.4569
-10.2025
-9.93849
-9.66514
-9.38955
-9.11773
-8.85186
-8.59378
-8.34867
-8.12159
-7.91442
-7.72839
-7.56835
-7.43762
-7.336
-7.26009
-7.21436
-7.19896
-7.21092
-7.24754
-7.30645
-7.38633
-7.48011
-7.58124
-7.68558
-7.79022
-7.88608
-7.96505
-8.02204
-8.05149
-8.04531
-7.99558
-7.8981
-7.74488
-7.53359
-7.26126
-6.92372
-6.51729
-6.04299
-5.49982
-4.8902
-4.2179
-3.48452
-2.69158
-1.84842
-0.963354
-0.042078
0.908993
1.87816
2.85567
3.83349
4.80277
5.75311
6.67513
7.56127
8.40354
9.19633
9.93268
10.6092
11.2233
11.7717
12.2535
12.6705
13.0246
13.3182
13.5532
13.7356
13.874
13.9708
14.0327
14.0651
14.0737
14.0642
14.0416
14.0091
13.9721
13.9304
13.8829
13.8314
13.7775
13.7152
13.6388
13.5463
13.4319
13.2901
13.1163
12.9043
12.6463
12.3383
11.9767
11.5564
11.0766
10.5343
9.92392
9.25262
8.52248
7.73791
6.90783
6.03675
5.13271
4.20427
3.25999
2.31236
1.37241
0.449897
-0.444108
-1.30071
-2.11302
-2.87265
-3.5718
-4.20805
-4.7802
-5.2856
-5.72699
-6.10446
-6.42296
-6.68721
-6.89987
-7.07256
-7.21694
-7.33977
-7.4541
-7.56525
-7.68308
-7.81473
-7.97341
-8.15857
-8.37787
-8.63185
-8.92589
-9.25545
-9.62207
-10.0205
-10.4496
-10.9002
-11.3616
-11.8313
-12.3004
-12.7626
-13.2075
-13.6328
-14.0288
-14.3938
-14.7229
-15.0157
-15.2644
-15.4758
-15.6461
-15.7843
-15.8885
-15.9684
-16.0227
-16.0624
-16.0849
-16.1002
-16.1045
-16.1039
-16.0909
-16.0653
-16.0187
-15.9406
-15.82
-15.636
-15.3647
-14.9871
-14.4865
-13.826
-12.9792
-11.9148
-10.6067
-9.02268
-7.14145
-4.93575
-2.38977
0.515185
3.78242
7.41822
11.4147
15.7625
20.4364
25.4092
30.6423
36.0873
41.6914
47.3871
53.1001
58.757
64.2736
69.5654
74.546
79.1252
83.2169
86.7336
89.5935
91.7239
93.0585
93.5401
93.12
91.7683
89.4689
86.2105
81.9983
76.8586
70.8306
63.9656
56.3285
48.001
39.0744
29.6489
19.8338
9.74839
-0.482849
-10.7382
-20.8924
-30.82
-40.4001
-49.5196
-58.0745
-65.9642
-73.102
-79.4143
-84.8379
-89.3287
-92.8559
-95.4038
-96.9735
-97.5761
-97.239
-96.0047
-93.9253
-91.0649
-87.4952
-83.2998
-78.5672
-73.387
-67.8523
-62.0592
-56.1051
-50.0771
-44.0589
-38.1359
-32.3828
-26.8669
-21.644
-16.7684
-12.2818
-8.21559
-4.58902
-1.41868
1.29264
3.54849
5.36202
6.75051
7.7452
8.37003
8.66267
8.65616
8.39353
7.91295
7.25804
6.466
5.5769
4.6287
3.6554
2.68861
1.75542
0.882641
0.0860602
-0.612973
-1.20479
-1.6759
-2.02421
-2.24416
-2.34211
-2.3161
-2.18044
-1.93532
-1.59422
-1.16452
-0.664865
-0.101978
0.502204
1.144
1.80645
2.48089
3.15127
3.81272
4.4571
5.07526
5.6613
6.21037
6.71692
7.17846
7.59928
7.97427
8.30505
8.59136
8.83816
9.04659
9.22219
9.36574
9.4865
9.58357
9.662
9.72446
9.78046
9.82891
9.87504
9.9201
9.96692
10.0179
10.0747
10.139
10.2126
10.2978
10.3967
10.5081
10.6332
10.7718
10.9195
11.0806
11.258
11.4489
11.65
11.8646
12.0958
12.3409
12.5968
12.865
13.1449
13.4373
13.7409
14.0556
14.3827
14.7206
15.0637
15.4152
15.7784
16.1483
16.5202
16.8953
17.275
17.6561
18.0363
18.4142
18.7907
19.1632
19.5311
19.8932
20.2509
20.6019
20.9443
21.2799
21.6106
21.9365
22.2554
22.5709
22.8872
23.2036
23.5169
23.8337
24.1589
24.4918
24.8334
25.1862
25.5546
25.9387
26.3367
26.7528
27.1912
27.6498
28.1281
28.6255
29.1406
29.6733
30.2192
30.7786
31.3511
31.9326
32.5224
33.1145
33.7044
34.2895
34.8634
35.425
35.9747
36.5059
37.0126
37.4945
37.9534
38.3843
38.7819
39.1489
39.4869
39.7949
40.0715
40.3204
40.5455
40.7478
40.9288
41.0929
41.2456
41.3885
41.5265
41.6624
41.8009
41.944
42.0926
42.252
42.4284
42.62
42.825
43.0466
43.2865
43.5435
43.8129
44.0971
44.3979
44.7101
45.0284
45.3525
45.6815
46.0111
46.3396
46.6629
46.9836
47.2947
47.5941
47.8799
48.1525
48.4088
48.6483
48.8704
49.0756
49.2641
49.4378
49.5957
49.7382
49.8678
49.9868
50.0955
50.2014
50.3016
50.396
50.4889
50.5833
50.6808
50.7863
50.8998
51.0234
51.1595
51.3115
51.4806
51.6704
51.8806
52.1115
52.3645
52.6434
52.9452
53.2694
53.6141
53.9801
54.3622
54.7571
55.1607
55.5689
55.9746
56.3714
56.7518
57.1082
57.4326
57.717
57.9511
58.126
58.2334
58.2657
58.2132
58.0666
57.8207
57.4711
57.0111
56.4393
55.751
54.9451
54.0217
52.9824
51.8299
50.5706
49.2078
47.7467
46.1956
44.562
42.8552
41.0855
39.2613
37.3924
35.4884
33.5575
31.6092
29.6498
27.6879
25.7303
23.783
21.8514
19.9386
18.0499
16.1848
14.3421
12.5245
10.7327
8.96556
7.22176
5.50056
3.80129
2.12067
0.455657
-1.19351
-2.82716
-4.44746
-6.05484
-7.64938
-9.22961
-10.7964
-12.3496
-13.8858
-15.4008
-16.895
-18.3649
-19.8084
-21.222
-22.6032
-23.9494
-25.2565
-26.5237
-27.7453
-28.9157
-30.0345
-31.1008
-32.1103
-33.0634
-33.9546
-34.7805
-35.5409
-36.2351
-36.8602
-37.4153
-37.8998
-38.3132
-38.6555
-38.9253
-39.1256
-39.2614
-39.3313
-39.3369
-39.2837
-39.1783
-39.0233
-38.8264
-38.5927
-38.3299
-38.0452
-37.745
-37.4397
-37.1418
-36.856
-36.5882
-36.3488
-36.1499
-35.9933
-35.8845
-35.8285
-35.8294
-35.8874
-36.003
-36.1742
-36.3995
-36.6722
-36.9849
-37.3314
-37.7023
-38.0875
-38.4774
-38.8594
-39.2241
-39.5572
-39.8473
-40.0836
-40.2586
-40.3608
-40.3839
-40.3208
-40.1653
-39.9174
-39.5793
-39.1506
-38.6356
-38.0395
-37.3686
-36.6322
-35.842
-35.0084
-34.1421
-33.257
-32.3679
-31.4858
-30.6237
-29.792
-28.9993
-28.2578
-27.5777
-26.9631
-26.4177
-25.9457
-25.5487
-25.2258
-24.9769
-24.7959
-24.6764
-24.6134
-24.6005
-24.6283
-24.6908
-24.7756
-24.8727
-24.9739
-25.0682
-25.1509
-25.2172
-25.2593
-25.2699
-25.2485
-25.1931
-25.1032
-24.9812
-24.8276
-24.6427
-24.4341
-24.2053
-23.9642
-23.718
-23.4722
-23.235
-23.0128
-22.8128
-22.6399
-22.4993
-22.3967
-22.3362
-22.32
-22.3512
-22.429
-22.5498
-22.7137
-22.9209
-23.1642
-23.4385
-23.7379
-24.0579
-24.3898
-24.7238
-25.0549
-25.375
-25.6777
-25.9549
-26.203
-26.4199
-26.5975
-26.7283
-26.8146
-26.8559
-26.8527
-26.8048
-26.7162
-26.5903
-26.4331
-26.2517
-26.0512
-25.8384
-25.6227
-25.4113
-25.2126
-25.0376
-24.8916
-24.7785
-24.7085
-24.6875
-24.7202
-24.8115
-24.9622
-25.1739
-25.4465
-25.7771
-26.1636
-26.6054
-27.0936
-27.6177
-28.1741
-28.7577
-29.3565
-29.9598
-30.5591
-31.1456
-31.7091
-32.24
-32.7303
-33.1753
-33.5658
-33.8957
-34.1612
-34.3608
-34.4913
-34.5506
-34.5417
-34.4673
-34.3316
-34.1385
-33.8952
-33.6086
-33.2873
-32.9423
-32.581
-32.2129
-31.8474
-31.4946
-31.1629
-30.8598
-30.5942
-30.3747
-30.2054
-30.0902
-30.0335
-30.0381
-30.1036
-30.2257
-30.4053
-30.6438
-30.9316
-31.26
-31.6243
-32.0176
-32.4301
-32.852
-33.2741
-33.6841
-34.0745
-34.4374
-34.7622
-35.0404
-35.2641
-35.4235
-35.5157
-35.5377
-35.4852
-35.3584
-35.1559
-34.8769
-34.5261
-34.1095
-33.6306
-33.0973
-32.515
-31.8903
-31.2337
-30.5576
-29.8685
-29.1775
-28.4926
-27.82
-27.1702
-26.5531
-25.9738
-25.4364
-24.947
-24.5103
-24.129
-23.8037
-23.5354
-23.3235
-23.1663
-23.0618
-23.0062
-22.9953
-23.0244
-23.0881
-23.1819
-23.3009
-23.4388
-23.5914
-23.7526
-23.9163
-24.0792
-24.2386
-24.3903
-24.5254
-24.6463
-24.7527
-24.8412
-24.9125
-24.9634
-24.9904
-24.9965
-24.9837
-24.9507
-24.8978
-24.825
-24.7364
-24.6296
-24.5039
-24.3611
-24.2018
-24.0267
-23.8394
-23.6379
-23.4225
-23.194
-22.9527
-22.699
-22.4356
-22.1617
-21.8772
-21.5846
-21.2838
-20.9774
-20.6712
-20.363
-20.0526
-19.7448
-19.4432
-19.1493
-18.8661
-18.5962
-18.3416
-18.1062
-17.8896
-17.6983
-17.5367
-17.4051
-17.3037
-17.2358
-17.1998
-17.2006
-17.2406
-17.3177
-17.4308
-17.5791
-17.759
-17.9704
-18.2102
-18.4747
-18.7609
-19.062
-19.3732
-19.6871
-19.9983
-20.2984
-20.5807
-20.836
-21.0566
-21.2351
-21.3637
-21.4342
-21.4397
-21.3739
-21.2308
-21.0052
-20.692
-20.2909
-19.8027
-19.2254
-18.5614
-17.8143
-16.9908
-16.0967
-15.1407
-14.1328
-13.0829
-12.0052
-10.9161
-9.82658
-8.74925
-7.70151
-6.70038
-5.75815
-4.88852
-4.10477
-3.41934
-2.84073
-2.37526
-2.03066
-1.81131
-1.71904
-1.75216
-1.90876
-2.1849
-2.57165
-3.05976
-3.6375
-4.29081
-5.00645
-5.76781
-6.55965
-7.36781
-8.17316
-8.95861
-9.7086
-10.4062
-11.0396
-11.5957
-12.0641
-12.4381
-12.707
-12.8639
-12.9076
-12.8369
-12.6515
-12.3537
-11.9478
-11.4407
-10.8381
-10.1481
-9.3803
-8.54617
-7.65404
-6.71221
-5.73308
-4.72496
-3.69908
-2.6663
-1.63398
-0.609936
0.399043
1.38959
2.354
3.28891
4.18976
5.05358
5.87873
6.66221
7.40525
8.11037
8.77458
9.39725
9.9803
10.529
11.0398
11.5116
11.9481
12.351
12.7203
13.057
13.3628
13.6425
13.8934
14.1159
14.3111
14.481
14.6258
14.7488
14.8483
14.924
14.9779
15.0069
15.0148
15.0045
14.9741
14.9226
14.8513
14.7565
14.6405
14.5042
14.3458
14.1634
13.9576
13.7249
13.4665
13.1823
12.8707
12.5329
12.1671
11.7734
11.3518
10.9034
10.428
9.92923
9.40517
8.85282
8.27822
7.68626
7.07555
6.44662
5.80268
5.14497
4.47715
3.79576
3.1084
2.41873
1.72752
1.03448
0.343654
-0.342277
-1.02316
-1.70008
-2.3685
-3.02979
-3.6798
-4.31912
-4.94336
-5.55774
-6.154
-6.73183
-7.28858
-7.82402
-8.33671
-8.82638
-9.29078
-9.72624
-10.1363
-10.52
-10.8792
-11.2107
-11.5202
-11.8063
-12.0732
-12.3192
-12.5504
-12.765
-12.9702
-13.163
-13.3508
-13.5291
-13.7042
-13.8681
-14.0276
-14.177
-14.3149
-14.4296
-14.5185
-14.5626
-14.5574
-14.4902
-14.3428
-14.0971
-13.7306
-13.2212
-12.5461
-11.685
-10.6094
-9.2994
-7.72821
-5.87784
-3.7249
-1.25864
1.53916
4.67335
8.15067
11.9655
16.1122
20.5721
25.3264
30.3452
35.5906
41.0147
46.5693
52.1977
57.8329
63.4041
68.8379
74.0547
78.9742
83.5148
87.5956
91.1352
94.0591
96.2984
97.7877
98.4697
98.2981
97.2361
95.2612
92.3607
88.5374
83.807
78.1988
71.7583
64.5406
56.6121
48.0583
38.9724
29.4565
19.6202
9.57958
-0.545186
-10.633
-20.5615
-30.2119
-39.4713
-48.2289
-56.384
-63.8462
-70.5354
-76.3858
-81.3442
-85.373
-88.45
-90.5655
-91.726
-91.9518
-91.2729
-89.7413
-87.4166
-84.3664
-80.669
-76.4072
-71.6684
-66.5446
-61.1285
-55.514
-49.7937
-44.0513
-38.3645
-32.8116
-27.4564
-22.3606
-17.5733
-13.1353
-9.07463
-5.41512
-2.169
0.660123
3.08158
5.10359
6.74577
8.03227
8.99664
9.66754
10.0866
10.2837
10.2965
10.1607
9.91237
9.58247
9.20334
8.80071
8.39572
8.00995
7.65645
7.35103
7.09863
6.9083
6.78165
6.71971
6.71742
6.77276
6.87474
7.02122
7.19785
7.40369
7.62459
7.85996
8.09693
8.33469
8.56022
8.7785
8.98178
9.17291
9.34631
9.50721
9.65539
9.79448
9.92983
10.0622
10.1953
10.3307
10.4752
10.6281
10.7933
10.9705
11.1659
11.375
11.6013
11.8402
12.0918
12.3522
12.6219
12.8935
13.1659
13.4327
13.6886
13.9295
14.1527
14.3532
14.5263
14.669
14.7823
14.8603
14.8983
14.8986
14.8614
14.7874
14.6766
14.5323
14.3562
14.1535
13.9294
13.6869
13.4328
13.1713
12.9079
12.6479
12.395
12.1562
11.9343
11.736
11.5669
11.43
11.3303
11.2687
11.2478
11.2687
11.3308
11.4361
11.5847
11.7757
12.0092
12.2826
12.5952
12.9431
13.3238
13.7351
14.1728
14.6358
15.1226
15.6298
16.1565
16.6988
17.2495
17.8114
18.3823
18.9622
19.5499
20.1446
20.7469
21.3562
21.9714
22.5926
23.2206
23.856
24.4993
25.1501
25.8075
26.4729
27.149
27.8324
28.5206
29.2146
29.9136
30.6146
31.3157
32.0138
32.7071
33.392
34.0651
34.7233
35.363
35.9804
36.5732
37.1376
37.6699
38.1678
38.6305
39.0555
39.4396
39.7851
40.0929
40.3648
40.6026
40.8098
40.9896
41.1477
41.2876
41.4171
41.5434
41.6719
41.8104
41.9648
42.1432
42.3503
42.5887
42.8654
43.1868
43.5539
43.9677
44.4288
44.9367
45.4889
46.0823
46.7118
47.371
48.0536
48.7495
49.4516
50.1518
50.8393
51.5058
52.1405
52.7333
53.2768
53.7654
54.1905
54.5503
54.837
55.0465
55.1795
55.2375
55.2224
55.1395
54.9921
54.7884
54.5349
54.2408
53.9143
53.5637
53.201
52.8392
52.4858
52.1527
51.8471
51.5803
51.3564
51.1844
51.0675
51.0095
51.0124
51.0792
51.2086
51.4006
51.6507
51.9559
52.3114
52.713
53.1539
53.6286
54.1297
54.6497
55.1818
55.7196
56.2565
56.7892
57.3088
57.8089
58.2858
58.7359
59.1541
59.5344
59.8756
60.1754
60.4305
60.6397
60.7988
60.9051
60.9558
60.9484
60.8788
60.7442
60.5405
60.2657
59.9142
59.482
58.9643
58.3572
57.6565
56.8573
55.956
54.9528
53.8422
52.621
51.2892
49.8487
48.2985
46.6386
44.8734
43.0087
41.0484
38.9975
36.8643
34.6538
32.3792
30.0533
27.6846
25.2863
22.8692
20.4429
18.0224
15.6218
13.2516
10.9223
8.64571
6.43099
4.28879
2.2278
0.255199
-1.62162
-3.39908
-5.0739
-6.64365
-8.10795
-9.46605
-10.7186
-11.8689
-12.9215
-13.8808
-14.7513
-15.5406
-16.2554
-16.9036
-17.493
-18.0319
-18.5272
-18.988
-19.4228
-19.8391
-20.2449
-20.6459
-21.0483
-21.457
-21.8749
-22.307
-22.7565
-23.2245
-23.7144
-24.2228
-24.7463
-25.2858
-25.8406
-26.404
-26.9717
-27.5392
-28.1045
-28.6582
-29.193
-29.7039
-30.1844
-30.6283
-31.0311
-31.3868
-31.69
-31.9371
-32.1265
-32.2545
-32.3187
-32.3195
-32.2593
-32.1381
-31.9593
-31.7261
-31.4463
-31.1226
-30.7624
-30.3706
-29.9542
-29.5214
-29.0819
-28.64
-28.2036
-27.7791
-27.3727
-26.9886
-26.6313
-26.3038
-26.0084
-25.7455
-25.5151
-25.316
-25.1468
-25.0031
-24.8832
-24.7803
-24.6897
-24.6042
-24.5174
-24.4246
-24.3194
-24.197
-24.0529
-23.8826
-23.6834
-23.4526
-23.1893
-22.8932
-22.5673
-22.2126
-21.8319
-21.4298
-21.0141
-20.5878
-20.1553
-19.7266
-19.3091
-18.9092
-18.5364
-18.195
-17.8917
-17.6315
-17.4188
-17.2574
-17.1496
-17.0971
-17.1005
-17.1585
-17.2699
-17.4307
-17.6368
-17.884
-18.1643
-18.4733
-18.8065
-19.1554
-19.513
-19.8726
-20.2241
-20.5647
-20.89
-21.1934
-21.4698
-21.7162
-21.9282
-22.1046
-22.2436
-22.3441
-22.4061
-22.4294
-22.4159
-22.3648
-22.2725
-22.1455
-21.9853
-21.7929
-21.5709
-21.3196
-21.0403
-20.7343
-20.4023
-20.0457
-19.6658
-19.263
-18.8389
-18.3941
-17.9319
-17.4518
-16.9542
-16.4424
-15.9188
-15.3863
-14.849
-14.3101
-13.7721
-13.2413
-12.7222
-12.219
-11.7383
-11.2851
-10.8611
-10.4742
-10.1311
-9.83488
-9.5899
-9.39893
-9.26429
-9.18935
-9.1761
-9.22431
-9.33323
-9.50305
-9.7349
-10.0227
-10.363
-10.7521
-11.1862
-11.6593
-12.1655
-12.6991
-13.2549
-13.8259
-14.4041
-14.986
-15.5663
-16.1386
-16.6973
-17.2398
-17.7614
-18.2588
-18.7313
-19.1752
-19.5885
-19.9701
-20.3173
-20.6326
-20.917
-21.1697
-21.3921
-21.5843
-21.7478
-21.8818
-21.9853
-22.0604
-22.1065
-22.1233
-22.1136
-22.074
-22.0032
-21.9009
-21.7629
-21.5917
-21.3888
-21.1506
-20.8766
-20.5666
-20.221
-19.8405
-19.4258
-18.9795
-18.5012
-17.9963
-17.4701
-16.9262
-16.3683
-15.8021
-15.2313
-14.6638
-14.1061
-13.5636
-13.0412
-12.546
-12.084
-11.6592
-11.2758
-10.9369
-10.645
-10.4014
-10.2085
-10.064
-9.9653
-9.91102
-9.89742
-9.92005
-9.97427
-10.0534
-10.1525
-10.2635
-10.3766
-10.4876
-10.5912
-10.6794
-10.7478
-10.7887
-10.7944
-10.7648
-10.6988
-10.5924
-10.4438
-10.2541
-10.0288
-9.76648
-9.46971
-9.14326
-8.79243
-8.42182
-8.03629
-7.64329
-7.25097
-6.86338
-6.48665
-6.12629
-5.78656
-5.47351
-5.18951
-4.93979
-4.7286
-4.55659
-4.42496
-4.33483
-4.28841
-4.28264
-4.31666
-4.38919
-4.49557
-4.63551
-4.8082
-5.00981
-5.23819
-5.48918
-5.75959
-6.04638
-6.34471
-6.6528
-6.96866
-7.28864
-7.6086
-7.92631
-8.23916
-8.54465
-8.83559
-9.11317
-9.37455
-9.61744
-9.84162
-10.0414
-10.2135
-10.3563
-10.4675
-10.5451
-10.5915
-10.601
-10.571
-10.5011
-10.3947
-10.2477
-10.0586
-9.82823
-9.55681
-9.24576
-8.89475
-8.50693
-8.08464
-7.63108
-7.14694
-6.63713
-6.10463
-5.55406
-4.98961
-4.41437
-3.83249
-3.24956
-2.66926
-2.09652
-1.53441
-0.988519
-0.462253
0.0398324
0.511777
0.953051
1.36288
1.73914
2.08253
2.39088
2.66382
2.90356
3.11236
3.29241
3.44808
3.58195
3.69772
3.80009
3.89658
3.98965
4.08251
4.18207
4.29481
4.42319
4.56884
4.73727
4.93319
5.15606
5.40568
5.68359
5.98816
6.319
6.67441
7.05025
7.44081
7.84296
8.25148
8.66077
9.06688
9.46131
9.83744
10.189
10.507
10.7881
11.0274
11.2192
11.3618
11.4484
11.4712
11.4315
11.3307
11.1646
10.9332
10.6366
10.2765
9.85396
9.37051
8.82968
8.23532
7.5909
6.89899
6.16503
5.39561
4.59367
3.76442
2.91242
2.03817
1.15157
0.25795
-0.638517
-1.53234
-2.41927
-3.29762
-4.15962
-4.99969
-5.81431
-6.59899
-7.35135
-8.07021
-8.7496
-9.39131
-9.98802
-10.5368
-11.0371
-11.4938
-11.8993
-12.2562
-12.562
-12.8194
-13.0289
-13.1902
-13.3091
-13.3925
-13.4408
-13.4573
-13.4487
-13.4173
-13.3724
-13.3143
-13.2536
-13.1953
-13.1458
-13.1073
-13.0879
-13.0845
-13.1081
-13.1576
-13.2371
-13.3412
-13.4737
-13.6244
-13.7959
-13.977
-14.1647
-14.3464
-14.5124
-14.6485
-14.7405
-14.772
-14.7237
-14.5783
-14.3132
-13.9073
-13.3383
-12.5884
-11.6345
-10.4591
-9.04256
-7.37396
-5.4356
-3.2217
-0.722801
2.05976
5.12589
8.46666
12.0694
15.9115
19.9703
24.2131
28.6042
33.0987
37.6499
42.2044
46.7043
51.0849
55.2859
59.24
62.8818
66.1453
68.9665
71.2823
73.0366
74.1771
74.6591
74.4425
73.5003
71.8156
69.3768
66.1876
62.2592
57.6143
52.2901
46.3361
39.8053
32.7652
25.2893
17.4565
9.35947
1.09314
-7.24764
-15.5647
-23.7591
-31.7335
-39.3956
-46.6584
-53.4386
-59.6616
-65.2612
-70.1819
-74.3786
-77.8184
-80.477
-82.3428
-83.4171
-83.7098
-83.2455
-82.0555
-80.183
-77.6783
-74.5986
-71.0083
-66.9737
-62.565
-57.8559
-52.9168
-47.8229
-42.6481
-37.458
-32.3166
-27.2837
-22.4114
-17.7495
-13.3377
-9.21335
-5.40727
-1.93877
1.1808
3.94031
6.34128
8.38413
10.0777
11.4348
12.4804
13.2283
13.7063
13.9346
13.9404
13.7502
13.3891
12.8865
12.2724
11.5685
10.7953
9.97826
9.1329
8.2821
7.43881
6.62134
5.84084
5.10943
4.43371
3.82268
3.27645
2.80423
2.40807
2.09111
1.84704
1.68347
1.59327
1.58097
1.63842
1.76912
1.96792
2.23361
2.55765
2.9405
3.37958
3.86831
4.40089
4.97336
5.58539
6.22617
6.88882
7.56826
8.26197
8.95989
9.65932
10.3509
11.0322
11.6931
12.3311
12.9371
13.5063
14.0338
14.5165
14.9489
15.3307
15.6561
15.9253
16.1346
16.2815
16.3684
16.3987
16.3723
16.2906
16.1584
15.9811
15.7626
15.5091
15.2257
14.9183
14.5947
14.261
13.9252
13.5939
13.2736
12.971
12.6917
12.4399
12.2223
12.041
11.9002
11.7992
11.7428
11.7342
11.7707
11.8477
11.9662
12.1269
12.3225
12.5467
12.797
13.07
13.3585
13.6577
13.9618
14.2655
14.5634
14.8523
15.1269
15.3827
15.6171
15.8259
16.009
16.1634
16.2913
16.3915
16.4676
16.5251
16.5634
16.5851
16.5955
16.6009
16.6048
16.6137
16.6324
16.6676
16.7231
16.8038
16.9147
17.0598
17.2422
17.463
17.7261
18.0336
18.3847
18.7788
19.2147
19.6915
20.2049
20.749
21.3221
21.9177
22.5324
23.1607
23.7981
24.4426
25.0856
25.7171
26.3384
26.9473
27.5389
28.1087
28.657
29.1857
29.6908
30.1724
30.6306
31.0649
31.4777
31.8682
32.241
32.5974
32.9402
33.2753
33.6008
33.9176
34.2281
34.5322
34.833
35.1311
35.4269
35.7197
36.0108
36.3006
36.5875
36.872
37.1535
37.4308
37.7042
37.9773
38.2462
38.5125
38.7744
39.0339
39.2903
39.5451
39.7978
40.0476
40.298
40.5554
40.8158
41.0799
41.3495
41.624
41.9065
42.1987
42.5009
42.815
43.142
43.4854
43.8437
44.2189
44.6119
45.0246
45.4576
45.9111
46.3873
46.8906
47.419
47.9754
48.5584
49.168
49.8037
50.4641
51.1482
51.8583
52.587
53.3295
54.0814
54.8404
55.5965
56.34
57.065
57.7619
58.4221
59.0313
59.5828
60.0664
60.4717
60.7872
61.0041
61.1185
61.1164
60.9947
60.7423
60.3579
59.8348
59.175
58.3741
57.4398
56.3675
55.17
53.8431
52.3954
50.8332
49.1609
47.3929
45.5371
43.6085
41.6146
39.5731
37.4917
35.3909
33.2798
31.1782
29.0955
27.0525
25.0589
23.1337
21.2862
19.5352
17.8936
16.37
14.9708
13.7057
12.5806
11.594
10.7462
10.0299
9.43807
8.95495
8.56559
8.24694
7.97279
7.71536
7.44823
7.13297
6.73416
6.21388
5.53626
4.66452
3.56503
2.20442
0.557153
-1.40201
-3.68617
-6.30909
-9.26826
-12.5616
-16.1715
-20.0766
-24.2457
-28.6347
-33.191
-37.8585
-42.5716
-47.2597
-51.8508
-56.2642
-60.4188
-64.2386
-67.6511
-70.5817
-72.9645
-74.7408
-75.862
-76.2898
-75.9988
-74.9741
-73.2184
-70.7408
-67.568
-63.7389
-59.3081
-54.3371
-48.8992
-43.0787
-36.9725
-30.6716
-24.2765
-17.8889
-11.6095
-5.53832
0.226418
5.60001
10.5014
14.8609
18.6176
21.723
24.1415
25.85
26.8376
27.1079
26.6742
25.5653
23.8182
21.4798
18.6055
15.2568
11.5003
7.40757
3.05185
-1.49302
-6.15698
-10.8663
-15.5536
-20.1561
-24.6175
-28.8846
-32.9094
-36.6558
-40.0904
-43.1903
-45.9371
-48.3201
-50.3344
-51.9802
-53.264
-54.1952
-54.7931
-55.0703
-55.0502
-54.7521
-54.2045
-53.4257
-52.4403
-51.2737
-49.9555
-48.5054
-46.9524
-45.3143
-43.6131
-41.8674
-40.0939
-38.3112
-36.5323
-34.7744
-33.0469
-31.3656
-29.7349
-28.1693
-26.6752
-25.2602
-23.9239
-22.6752
-21.5124
-20.4415
-19.4553
-18.5594
-17.7525
-17.0324
-16.3925
-15.8308
-15.3464
-14.9305
-14.5784
-14.2834
-14.0432
-13.8491
-13.6966
-13.5804
-13.4981
-13.4442
-13.4148
-13.409
-13.4288
-13.4698
-13.5301
-13.6118
-13.7198
-13.8522
-14.0144
-14.2053
-14.4306
-14.6895
-14.9865
-15.3203
-15.6941
-16.1057
-16.5536
-17.036
-17.5503
-18.0923
-18.6561
-19.2352
-19.8185
-20.4014
-20.9771
-21.534
-22.0631
-22.5535
-22.9907
-23.3711
-23.6885
-23.9335
-24.1011
-24.186
-24.1821
-24.0914
-23.9159
-23.656
-23.3166
-22.9023
-22.4193
-21.8773
-21.2832
-20.6502
-19.9892
-19.3119
-18.63
-17.9549
-17.2957
-16.6635
-16.0654
-15.5107
-15.008
-14.5602
-14.171
-13.8413
-13.5712
-13.3588
-13.1977
-13.0869
-13.0234
-12.9987
-13.0069
-13.04
-13.0911
-13.1523
-13.2174
-13.2786
-13.329
-13.3641
-13.381
-13.3752
-13.344
-13.2863
-13.2015
-13.0905
-12.9545
-12.7958
-12.6165
-12.4205
-12.2109
-11.9915
-11.766
-11.5381
-11.3104
-11.0869
-10.8731
-10.6689
-10.4729
-10.2888
-10.1229
-9.97005
-9.83119
-9.70453
-9.59211
-9.48931
-9.39273
-9.3017
-9.21338
-9.12604
-9.03557
-8.94202
-8.84651
-8.74364
-8.62918
-8.50456
-8.36584
-8.21489
-8.04963
-7.87181
-7.68349
-7.48356
-7.27167
-7.05018
-6.82377
-6.59054
-6.3512
-6.10783
-5.86137
-5.61381
-5.36514
-5.11806
-4.87521
-4.63512
-4.39786
-4.16461
-3.93921
-3.71681
-3.50222
-3.28929
-3.07271
-2.85599
-2.63393
-2.41027
-2.17696
-1.94106
-1.69712
-1.45015
-1.19638
-0.941027
-0.682121
-0.424296
-0.169771
0.0797251
0.318818
0.54884
0.759887
0.95855
1.13672
1.30213
1.44718
1.58139
1.7049
1.82439
1.94445
2.07205
2.21312
2.37558
2.5732
2.80904
3.09566
3.43625
3.84017
4.3088
4.85315
5.46505
6.14564
6.8857
7.6766
8.50535
9.35386
10.2061
11.0381
11.8287
12.5466
13.1719
13.6765
14.0362
14.2227
14.219
14.0048
13.569
12.9016
12.0021
10.8761
9.53101
7.97991
6.24847
4.36792
2.3695
0.297184
-1.81371
-3.91347
-5.9625
-7.90933
-9.71605
-11.3338
-12.7339
-13.8808
-14.7518
-15.3268
-15.5953
-15.5582
-15.2151
-14.5827
-13.676
-12.5264
-11.1613
-9.62238
-7.94493
-6.17522
-4.35302
-2.52317
-0.724387
1.00573
2.63471
4.13484
5.48582
6.67547
7.69465
8.54328
9.22677
9.75822
10.1538
10.4337
10.6232
10.7512
10.8399
10.913
10.9943
11.1078
11.2633
11.4672
11.7255
12.0328
12.3822
12.7561
13.1351
13.4922
13.7987
14.0244
14.1316
14.0878
13.8592
13.4185
12.7383
11.8026
10.5952
9.11143
7.35488
5.34442
3.09493
0.635124
-1.99601
-4.74947
-7.5768
-10.4179
-13.2173
-15.9186
-18.457
-20.7831
-22.8318
-24.5631
-25.9241
-26.8869
-27.4173
-27.5024
-27.1328
-26.3169
-25.064
-23.3941
-21.3447
-18.9527
-16.2699
-13.3402
-10.2312
-6.99239
-3.69686
-0.398711
2.83379
5.95037
8.88975
11.6083
14.0583
16.1986
18.0057
19.4513
20.528
21.2229
21.5425
21.4856
21.0741
20.3187
19.2514
17.8965
16.2901
14.4595
12.4502
10.2973
8.04472
5.72993
3.3939
1.0786
-1.18452
-3.36074
-5.42168
-7.33351
-9.07975
-10.6343
-11.9893
-13.1274
-14.0496
-14.7538
-15.2458
-15.5285
-15.6205
-15.5422
-15.3113
-14.9582
-14.5058
-13.9888
-13.434
-12.8757
-12.3436
-11.8745
-11.4906
-11.2146
-11.07
-11.0702
-11.2277
-11.5367
-12.0042
-12.6102
-13.349
-14.1857
-15.1031
-16.059
-17.0195
-17.9354
-18.7645
-19.4603
-19.9706
-20.2501
-20.2498
-19.9312
-19.2526
-18.1883
-16.7085
-14.8066
-12.4655
-9.69194
-6.49335
-2.89682
1.07248
5.36759
9.94522
14.7429
19.7028
24.7553
29.8245
34.8317
39.6985
44.3519
48.7036
52.6786
56.2
59.2037
61.62
63.3911
64.4674
64.8114
64.3884
63.1732
61.1587
58.3401
54.7314
50.3501
45.2317
39.4109
32.9473
25.8979
18.3394
10.3514
2.01986
-6.5688
-15.3093
-24.0972
-32.8304
-41.3974
-49.6974
-57.6193
-65.0712
-71.9527
-78.1815
-83.6729
-88.3646
-92.1945
-95.1209
-97.1103
-98.1484
-98.2337
-97.376
-95.6071
-92.9628
-89.5041
-85.291
-80.4032
-74.9272
-68.9645
-62.6104
-55.9733
-49.1561
-42.2657
-35.4013
-28.6561
-22.124
-15.8856
-10.0124
-4.55932
0.421824
4.89495
8.84073
12.2502
15.1272
17.4909
19.3639
20.7881
21.7978
22.445
22.7759
22.8513
22.7144
22.4149
22.0023
21.5239
21.0107
20.496
19.9974
19.5319
19.1037
18.7113
18.3495
18.0052
17.6616
17.2958
16.8905
16.4175
15.8625
15.1962
14.4176
13.5051
12.4705
11.3064
10.0387
8.67507
7.25427
5.80584
4.37248
2.99414
1.71981
0.595499
-0.330826
-1.01206
-1.41202
-1.49229
-1.22969
-0.601151
0.394106
1.75999
3.47282
5.50677
7.82115
10.3686
13.087
15.9124
18.7659
21.5751
24.2536
26.7255
28.9087
30.7406
32.148
33.0818
33.4952
33.3633
32.6714
31.4162
29.6221
27.3239
24.5722
21.4251
17.9634
14.2692
10.4431
6.58055
2.78989
-0.831942
-4.17774
-7.15421
-9.67439
-11.6618
-13.0547
-13.8008
-13.8754
-13.2632
-11.9695
-10.0124
-7.43447
-4.28448
-0.638105
3.42345
7.80513
12.4087
17.1266
21.8479
26.4663
30.8746
34.9769
38.6766
41.9005
44.577
46.6603
48.1054
48.9002
49.0386
48.5365
47.4153
45.7245
43.5226
40.8755
37.8603
34.5616
31.0731
27.4809
23.8797
20.3508
16.9847
13.8471
11.0064
8.51581
6.42643
4.76432
3.5465
2.78278
2.4719
2.59442
3.12473
4.02746
5.26548
6.78778
8.54832
10.49
12.5619
14.7135
16.8944
19.0663
21.189
23.2379
25.1814
27.0134
28.7244
30.3188
31.7924
33.1689
34.4581
35.6882
36.877
38.0553
39.2469
40.4769
41.7644
43.128
44.5858
46.1409
47.8003
49.5546
51.4036
53.3214
55.2969
57.2923
59.2883
61.2381
63.1097
64.8595
66.4505
67.8427
68.9979
69.8862
70.4757
70.7481
70.6759
70.2606
69.4992
68.3981
66.9639
65.2235
63.2006
60.9342
58.4642
55.8385
53.1107
50.3302
47.5511
44.8292
42.2243
39.7829
37.5542
35.5821
33.9038
32.5532
31.553
30.9248
30.6846
30.8296
31.3583
32.2547
33.5029
35.0723
36.9266
39.0329
41.3566
43.847
46.4594
49.1462
51.8628
54.5636
57.2067
59.7508
62.1657
64.4145
66.4638
68.299
69.9087
71.2781
72.4006
73.2778
73.9147
74.3189
74.4971
74.4711
74.2658
73.8943
73.3764
72.736
71.9995
71.1836
70.3098
69.3961
68.4671
67.5303
66.5971
65.6799
64.7902
63.9293
63.0953
62.2951
61.5278
60.7894
60.0769
59.3834
58.7032
58.0269
57.3396
56.6387
55.9104
55.1506
54.3504
53.5036
52.6046
51.6462
50.6237
49.5342
48.3736
47.141
45.8329
44.4529
43.0007
41.4808
39.8941
38.2471
36.5489
34.8022
33.0156
31.1961
29.358
27.5049
25.6461
23.7921
21.9594
20.1525
18.3833
16.661
14.9931
13.391
11.8612
10.4141
9.05741
7.79622
6.63254
5.57276
4.62141
3.77696
3.03871
2.40491
1.87458
1.44078
1.09274
0.82957
0.635088
0.510772
0.43671
0.417923
0.44021
0.500376
0.584859
0.6918
0.818634
0.952881
1.09789
1.23771
1.3766
1.49847
1.61311
1.70031
1.76896
1.80067
1.79896
1.75239
1.65819
1.50957
1.30178
1.03183
0.689442
0.279289
-0.209283
-0.763559
-1.38896
-2.06851
-2.80075
-3.56101
-4.33782
-5.1028
-5.82651
-6.48409
-7.0302
-7.44581
-7.68191
-7.71443
-7.50212
-7.01672
-6.2215
-5.09508
-3.61067
-1.75965
0.460434
3.04996
5.9924
9.26806
12.8369
16.6657
20.6872
24.8577
29.0988
33.3499
37.5192
41.5424
45.3313
48.8184
51.9187
54.5731
56.7215
58.3095
59.2972
59.6483
59.353
58.3918
56.7761
54.5114
51.6392
48.1782
44.1749
39.6765
34.7532
29.4503
23.8275
17.9482
11.8723
5.65888
-0.643852
-6.97915
-13.3027
-19.5727
-25.7609
-31.828
-37.7453
-43.4907
-49.047
-54.3892
-59.4886
-64.3331
-68.8954
-73.1564
-77.0775
-80.6403
-83.8079
-86.5475
-88.8202
-90.5878
-91.8129
-92.4557
-92.4814
-91.8585
-90.5717
-88.5942
-85.9222
-82.5535
-78.5163
-73.8221
-68.5118
-62.6379
-56.2703
-49.4841
-42.3648
-35.0185
-27.5527
-20.0855
-12.7258
-5.60824
1.14579
7.41795
13.101
18.0856
22.2767
25.5968
27.9871
29.3932
29.7868
29.1543
27.5164
24.8841
21.2916
16.8076
11.5118
5.4862
-1.18618
-8.38033
-15.9864
-23.883
-31.969
-40.1064
-48.1884
-56.0992
-63.7526
-71.0396
-77.8755
-84.1932
-89.9423
-95.0696
-99.5366
-103.332
-106.45
-108.893
-110.662
-111.796
-112.325
-112.29
-111.719
-110.679
-109.225
-107.409
-105.286
-102.913
-100.368
-97.6806
-94.9022
-92.0779
-89.2637
-86.482
-83.7662
-81.1448
-78.6498
-76.2889
-74.0705
-72.0072
-70.11
-68.3674
-66.7541
-65.2787
-63.9201
-62.6647
-61.4692
-60.3353
-59.2342
-58.1438
-57.0202
-55.8593
-54.6412
-53.342
-51.9396
-50.4275
-48.8107
-47.0693
-45.2091
-43.2304
-41.1626
-38.998
-36.7622
-34.4702
-32.1551
-29.8318
-27.5302
-25.2771
-23.1027
-21.0286
-19.0694
-17.2573
-15.613
-14.1453
-12.8563
-11.7608
-10.8616
-10.1503
-9.61824
-9.25559
-9.04995
-8.9784
-9.02075
-9.15688
-9.3771
-9.64333
-9.93293
-10.2265
-10.5095
-10.7553
-10.9412
-11.0603
-11.1035
-11.0578
-10.9084
-10.6603
-10.3111
-9.8581
-9.29482
-8.63142
-7.86605
-7.0046
-6.04623
-5.00221
-3.87651
-2.67334
-1.39466
-0.049714
1.35215
2.81136
4.32004
5.87256
7.45965
9.07911
10.7261
12.3877
14.0515
15.7126
17.3652
18.9913
20.5819
22.1234
23.6091
25.0196
26.3554
27.5961
28.7361
29.7618
30.671
31.4586
32.1163
32.649
33.0563
33.3492
33.5239
33.5998
33.5859
33.5004
33.3528
33.1626
32.9458
32.7216
32.5066
32.3127
32.1598
32.054
32.006
32.0166
32.098
32.2387
32.4303
32.6625
32.925
33.1983
33.4591
33.683
33.8471
33.9221
33.8705
33.6711
33.2993
32.7289
31.9335
30.8975
29.6092
28.0618
26.2543
24.1896
21.8866
19.3608
16.6363
13.7445
10.7303
7.63346
4.49744
1.37432
-1.67439
-4.60152
-7.35715
-9.89029
-12.1465
-14.0888
-15.6844
-16.9028
-17.718
-18.1193
-18.1081
-17.6849
-16.856
-15.6487
-14.0985
-12.2394
-10.1106
-7.76447
-5.25758
-2.64412
0.0216761
2.68151
5.27572
7.75307
10.0751
12.1891
14.0519
15.6348
16.9239
17.8931
18.5296
18.8325
18.8094
18.4691
17.8184
16.8869
15.7075
14.3032
12.6918
10.9166
9.01552
7.01626
4.93924
2.822
0.695762
-1.4209
-3.5146
-5.56469
-7.54579
-9.46093
-11.3037
-13.0737
-14.76
-16.3755
-17.9295
-19.4254
-20.8679
-22.2676
-23.6437
-24.9955
-26.3286
-27.6527
-28.984
-30.32
-31.6647
-33.02
-34.3983
-35.79
-37.1892
-38.5968
-40.0183
-41.442
-42.8589
-44.2672
-45.6673
-47.0493
-48.404
-49.73
-51.027
-52.2872
-53.4952
-54.6589
-55.7762
-56.8457
-57.8556
-58.8155
-59.7261
-60.5888
-61.3957
-62.1589
-62.884
-63.573
-64.2248
-64.8468
-65.451
-66.035
-66.6034
-67.1583
-67.7109
-68.2568
-68.8048
-69.3478
-69.8931
-70.4327
-70.9657
-71.4853
-71.9976
-72.486
-72.9445
-73.3629
-73.7336
-74.0482
-74.2961
-74.4713
-74.5688
-74.5819
-74.5039
-74.3341
-74.0768
-73.7329
-73.3039
-72.8028
-72.2455
-71.6454
-71.0172
-70.3828
-69.7665
-69.1918
-68.6788
-68.2554
-67.9432
-67.7683
-67.7437
-67.8926
-68.2251
-68.7536
-69.4722
-70.3857
-71.4787
-72.7421
-74.1529
-75.6813
-77.2958
-78.9515
-80.6075
-82.2063
-83.7013
-85.0296
-86.1371
-86.9626
-87.4576
-87.5643
-87.2389
-86.4352
-85.1205
-83.2669
-80.8608
-77.8903
-74.3615
-70.2868
-65.6915
-60.6132
-55.1018
-49.2151
-43.0237
-36.6038
-30.0397
-23.4248
-16.8568
-10.4337
-4.2538
1.58135
6.97519
11.8349
16.0731
19.614
22.3859
24.3363
25.4176
25.6038
24.8769
23.2388
20.7046
17.3029
13.0766
8.08566
2.40343
-3.88856
-10.6971
-17.9203
-25.4494
-33.171
-40.9657
-48.719
-56.3143
-63.6399
-70.5877
-77.0597
-82.9655
-88.2253
-92.7692
-96.5443
-99.5112
-101.64
-102.921
-103.35
-102.943
-101.723
-99.7336
-97.0195
-93.6388
-89.6572
-85.1475
-80.1864
-74.8524
-69.2277
-63.3954
-57.4335
-51.4193
-45.4237
-39.5107
-33.7427
-28.1731
-22.8475
-17.8011
-13.0662
-8.66602
-4.61344
-0.910792
2.43802
5.4404
8.10656
10.4595
12.5137
14.2947
15.8281
17.1492
18.2791
19.2407
20.0686
20.79
21.4304
22.0049
22.5447
23.0792
23.6133
24.1586
24.7275
25.3361
25.9803
26.6616
27.3808
28.1423
28.9366
29.7489
30.5829
31.4331
32.2887
33.1291
33.9574
34.7637
35.5401
36.2671
36.9508
37.5852
38.1679
38.6874
39.1553
39.5821
39.9662
40.3136
40.6379
40.9623
41.2907
41.6387
42.0237
42.4715
42.991
43.5987
44.3101
45.1455
46.109
47.2075
48.4471
49.8365
51.3655
53.0285
54.812
56.7044
58.6806
60.715
62.7823
64.8567
66.9
68.8747
70.7485
72.4889
74.0589
75.4229
76.5551
77.4316
78.0279
78.3264
78.3171
77.9992
77.3674
76.4271
75.1925
73.6831
71.9205
69.9271
67.7406
65.3983
62.9356
60.388
57.7988
55.2049
52.6451
50.1508
47.7573
45.4938
43.3818
41.4393
39.6804
38.1152
36.7432
35.5626
34.5641
33.7341
33.0567
32.5095
32.0728
31.7257
31.4389
31.1859
30.942
30.6851
30.3912
30.0405
29.6176
29.1113
28.5118
27.8139
27.0196
26.1339
25.1638
24.1224
23.0244
21.8891
20.7361
19.5884
18.4691
17.4011
16.4099
15.5185
14.7505
14.1276
13.6671
13.3843
13.293
13.3994
13.7149
14.2445
14.9893
15.9478
17.1125
18.4811
20.038
21.7731
23.6672
25.7138
27.8838
30.1484
32.4921
34.8918
37.3243
39.7564
42.1721
44.5406
46.8463
49.0649
51.1766
53.1664
55.0141
56.6998
58.2147
59.553
60.7043
61.6622
62.427
63.005
63.3987
63.6137
63.6639
63.5681
63.3397
62.994
62.5542
62.0463
61.491
60.9114
60.3303
59.7737
59.2612
58.813
58.4463
58.1759
58.0163
57.9734
58.0571
58.2729
58.6179
59.0835
59.6679
60.3629
61.1542
62.0265
62.9632
63.9523
64.9693
65.9938
67.0066
67.9935
68.9321
69.805
70.5984
71.3025
71.9052
72.3946
72.7695
73.0293
73.173
73.1995
73.1167
72.9364
72.6634
72.3125
71.8901
71.4144
70.8931
70.3396
69.7655
69.1868
68.6105
68.0492
67.5062
66.9897
66.5016
66.0423
65.6124
65.212
64.8356
64.4764
64.1284
63.7817
63.4302
63.0659
62.6778
62.2597
61.8006
61.2914
60.7256
60.0994
59.4054
58.6403
57.8007
56.8861
55.8959
54.8299
53.6911
52.4831
51.2094
49.8703
48.4735
47.0223
45.5216
43.9735
42.3829
40.7511
39.0821
37.3789
35.6417
33.8732
32.0723
30.2397
28.3741
26.4774
24.5466
22.585
20.59
18.5676
16.5137
14.4282
12.3138
10.1775
8.01758
5.83589
3.63836
1.42848
-0.787477
-3.00592
-5.21829
-7.41961
-9.60137
-11.7587
-13.8822
-15.9636
-17.9949
-19.974
-21.8875
-23.7276
-25.4861
-27.1555
-28.7277
-30.1932
-31.5477
-32.7862
-33.9023
-34.8874
-35.7423
-36.4655
-37.0554
-37.5111
-37.8372
-38.0418
-38.1273
-38.1015
-37.9736
-37.7604
-37.4703
-37.1162
-36.7158
-36.2912
-35.8549
-35.4209
-35.0103
-34.6401
-34.3267
-34.0851
-33.9293
-33.8679
-33.9118
-34.0654
-34.3357
-34.7273
-35.2341
-35.8533
-36.5743
-37.3907
-38.2843
-39.242
-40.2435
-41.2725
-42.3044
-43.3174
-44.2897
-45.2004
-46.0274
-46.7487
-47.3491
-47.8148
-48.1307
-48.2876
-48.2777
-48.1009
-47.7547
-47.245
-46.5762
-45.7573
-44.8037
-43.7304
-42.5582
-41.3109
-40.009
-38.6719
-37.3287
-36.007
-34.7259
-33.5033
-32.3643
-31.3286
-30.4101
-29.6179
-28.9636
-28.4566
-28.0941
-27.8741
-27.7906
-27.8363
-27.9965
-28.2568
-28.5988
-29.0083
-29.4579
-29.9246
-30.3862
-30.8234
-31.2106
-31.5241
-31.7484
-31.8654
-31.8636
-31.7321
-31.465
-31.0592
-30.5162
-29.8408
-29.0421
-28.1331
-27.1299
-26.0486
-24.9149
-23.7566
-22.5961
-21.4608
-20.3785
-19.376
-18.4799
-17.7164
-17.1062
-16.6709
-16.4251
-16.3853
-16.5561
-16.9423
-17.5421
-18.3509
-19.358
-20.5511
-21.9081
-23.406
-25.0192
-26.7189
-28.4741
-30.2474
-32.0107
-33.7293
-35.3722
-36.9075
-38.3081
-39.5456
-40.6009
-41.4555
-42.0972
-42.5177
-42.7121
-42.6798
-42.4293
-41.9699
-41.3166
-40.4889
-39.5073
-38.3938
-37.1756
-35.8768
-34.5272
-33.1543
-31.7826
-30.4369
-29.1387
-27.9044
-26.7519
-25.6929
-24.7369
-23.8915
-23.1537
-22.52
-21.9859
-21.5427
-21.1779
-20.8833
-20.639
-20.4288
-20.2354
-20.0396
-19.8296
-19.5902
-19.3099
-18.9783
-18.5894
-18.1363
-17.6201
-17.039
-16.403
-15.7226
-15.0057
-14.2678
-13.5237
-12.7901
-12.0866
-11.4319
-10.847
-10.3556
-9.97137
-9.70991
-9.58704
-9.61922
-9.81254
-10.1748
-10.7092
-11.4189
-12.2974
-13.3412
-14.5388
-15.8746
-17.3354
-18.9047
-20.5634
-22.2917
-24.0661
-25.8627
-27.6606
-29.4365
-31.1695
-32.8381
-34.4251
-35.9155
-37.292
-38.5423
-39.6571
-40.628
-41.4501
-42.121
-42.6405
-43.008
-43.2291
-43.3078
-43.2532
-43.0741
-42.7789
-42.3775
-41.88
-41.2963
-40.6381
-39.9151
-39.1383
-38.3191
-37.4652
-36.5875
-35.6931
-34.7889
-33.8821
-32.9813
-32.0907
-31.2157
-30.3605
-29.5274
-28.7215
-27.9451
-27.201
-26.4928
-25.8197
-25.1812
-24.5789
-24.0149
-23.4858
-22.9892
-22.5232
-22.0864
-21.6754
-21.287
-20.9178
-20.567
-20.2282
-19.8954
-19.5672
-19.2387
-18.9081
-18.5721
-18.2292
-17.8788
-17.5189
-17.1482
-16.7678
-16.3813
-15.9896
-15.5942
-15.1997
-14.8114
-14.4317
-14.064
-13.7132
-13.3855
-13.0816
-12.8033
-12.5518
-12.3296
-12.1332
-11.9617
-11.8092
-11.6731
-11.5435
-11.4079
-11.2603
-11.0948
-10.8955
-10.6491
-10.3453
-9.9725
-9.5201
-8.97755
-8.33681
-7.59355
-6.74266
-5.78227
-4.7136
-3.541
-2.27202
-0.915881
0.513316
1.99691
3.51826
5.06165
6.60107
8.11185
9.57113
10.9555
12.2407
13.4028
14.4224
15.2842
15.9705
16.4711
16.7756
16.8815
16.7873
16.4936
16.0127
15.3617
14.5529
13.6043
12.5411
11.3921
10.1819
8.93361
7.68339
6.46337
5.30174
4.22351
3.25864
2.4352
1.77029
1.27822
0.977194
0.883601
0.997579
1.31944
1.84817
2.58194
3.50642
4.60957
5.87232
7.27771
8.80099
10.4147
12.0973
13.8234
15.5671
17.3027
19.0061
20.6532
22.2235
23.6981
25.0603
26.2983
27.3997
28.3545
29.1603
29.8179
30.326
30.6866
30.9087
31.0047
30.9807
30.8465
30.618
30.3119
29.939
29.5147
29.0524
28.5672
28.0688
27.568
27.0754
26.5995
26.147
25.7225
25.329
24.9679
24.6385
24.336
24.0603
23.8071
23.5698
23.34
23.1131
22.8806
22.636
22.3708
22.0794
21.7568
21.3956
20.9857
20.528
20.0177
19.4539
18.8346
18.1613
17.4329
16.6536
15.8269
14.9567
14.0518
13.114
12.1499
11.1668
10.1738
9.17731
8.18139
7.19943
6.23521
5.30215
4.40634
3.55869
2.76648
2.03675
1.37247
0.784341
0.280952
-0.135736
-0.462442
-0.695227
-0.821985
-0.852716
-0.786232
-0.624959
-0.368133
-0.0225057
0.409668
0.919499
1.50346
2.15026
2.85577
3.60604
4.39596
5.21069
6.04263
6.8815
7.72611
8.56248
9.39015
10.2001
10.9953
11.7725
12.5406
13.3011
14.0597
14.8316
15.6292
16.4716
17.3722
18.3565
19.4425
20.6572
22.0202
23.5553
25.2775
27.211
29.3657
31.7571
34.3912
37.2712
40.3868
43.7335
47.2927
51.0412
54.9472
58.9718
63.064
67.1774
71.2539
75.23
79.0359
82.6046
85.8655
88.7441
91.1663
93.0663
94.3826
95.0512
95.0167
94.2388
92.6842
90.3287
87.1609
83.1824
78.4101
72.8675
66.5967
59.6502
52.0914
43.9986
35.4602
26.5723
17.4361
8.16278
-1.13241
-10.3361
-19.3333
-28.0121
-36.2605
-43.978
-51.0652
-57.4403
-63.03
-67.7693
-71.6058
-74.5069
-76.4502
-77.428
-77.4468
-76.5294
-74.712
-72.0383
-68.5645
-64.3606
-59.5038
-54.0759
-48.1652
-41.8647
-35.2666
-28.4662
-21.5564
-14.6271
-7.76223
-1.04277
5.4616
11.6806
17.5555
23.0382
28.0865
32.6704
36.7691
40.3674
43.4592
46.0473
48.1466
49.7684
50.9407
51.683
52.0263
52.0042
51.6508
51.0039
50.1041
48.9868
47.6882
46.2438
44.687
43.0502
41.3509
39.6267
37.9021
36.1978
34.5275
32.9119
31.3602
29.8863
28.4957
27.1966
25.9883
24.8772
23.8589
22.9362
22.1057
21.3647
20.7008
20.1158
19.5958
19.1414
18.7431
18.3953
18.087
17.8155
17.5765
17.3622
17.169
16.9913
16.8287
16.6758
16.5361
16.406
16.2895
16.1856
16.106
16.0475
16.0197
16.0237
16.0694
16.1606
16.3085
16.5153
16.7898
17.1339
17.5499
18.0423
18.6166
19.2697
19.9953
20.7952
21.6684
22.6054
23.595
24.6318
25.7072
26.8098
27.9236
29.0399
30.1512
31.2413
32.2972
33.3095
34.2716
35.1707
35.996
36.7425
37.4075
37.9848
38.4687
38.8618
39.1678
39.3852
39.5156
39.5641
39.5346
39.4337
39.2634
39.0346
38.757
38.435
38.0746
37.6851
37.2766
36.8547
36.4225
35.9909
35.57
35.1636
34.771
34.4052
34.0767
33.7863
33.5356
33.3315
33.1793
33.081
33.0365
33.0499
33.1234
33.2557
33.446
33.6919
33.9932
34.342
34.7279
35.1484
35.599
36.0671
36.5414
37.0129
37.4708
37.9031
38.2965
38.6421
38.9305
39.1502
39.2882
39.3411
39.3089
39.1822
38.9596
38.6411
38.2323
37.7348
37.1538
36.5005
35.7899
35.0307
34.2381
33.4279
32.6142
31.8154
31.048
30.3296
29.6765
29.102
28.618
28.2368
27.9714
27.8235
27.7928
27.8858
28.1025
28.4378
28.8848
29.4367
30.086
30.8174
31.614
32.4643
33.3557
34.27
35.1896
36.1017
36.993
37.8493
38.6576
39.4086
40.0974
40.7132
41.2484
41.7027
42.0784
42.3712
42.5799
42.7108
42.7722
42.7654
42.6949
42.5693
42.3965
42.1817
41.93
41.6499
41.3477
41.0284
40.698
40.3601
40.0208
39.6794
39.3389
39.0009
38.6733
38.3494
38.0288
37.7122
37.4
37.0909
36.7845
36.4812
36.181
35.8825
35.5823
35.2834
34.9856
34.6885
34.3918
34.0967
33.8029
33.5099
33.2164
32.9233
32.6332
32.3415
32.0455
31.7462
31.4431
31.1316
30.8088
30.4732
30.1241
29.7557
29.365
28.9484
28.5036
28.0251
27.5126
26.9596
26.3624
25.7167
25.0171
24.2631
23.4543
22.5858
21.6536
20.659
19.6028
18.4821
17.294
16.0432
14.7299
13.3563
11.9235
10.4366
8.89891
7.31392
5.68503
4.01897
2.32107
0.59658
-1.14698
-2.9047
-4.67104
-6.44001
-8.20414
-9.95888
-11.6982
-13.4186
-15.1155
-16.7844
-18.4221
-20.0255
-21.592
-23.1187
-24.6066
-26.0526
-27.457
-28.8168
-30.1299
-31.398
-32.6207
-33.7962
-34.9234
-36.0022
-37.0324
-38.0106
-38.9391
-39.8119
-40.6223
-41.3706
-42.0531
-42.668
-43.2124
-43.6815
-44.0721
-44.3832
-44.6125
-44.7583
-44.8212
-44.8006
-44.6961
-44.511
-44.2498
-43.9153
-43.5142
-43.0503
-42.5323
-41.9666
-41.3597
-40.7213
-40.0634
-39.3932
-38.72
-38.0514
-37.3958
-36.7614
-36.1537
-35.5789
-35.0425
-34.5488
-34.1
-33.697
-33.3414
-33.0317
-32.769
-32.5469
-32.3626
-32.2132
-32.0964
-32.0044
-31.9362
-31.8845
-31.8454
-31.8132
-31.7851
-31.7565
-31.7216
-31.6804
-31.6341
-31.5791
-31.5148
-31.4407
-31.3572
-31.2663
-31.1683
-31.0653
-30.9605
-30.8553
-30.7519
-30.6517
-30.5605
-30.4764
-30.3977
-30.3271
-30.2684
-30.2189
-30.1765
-30.1412
-30.1126
-30.0881
-30.0629
-30.0369
-30.0072
-29.9718
-29.9286
-29.874
-29.8056
-29.7218
-29.6171
-29.4929
-29.3522
-29.1901
-29.004
-28.7954
-28.5645
-28.3135
-28.0398
-27.7478
-27.4418
-27.1213
-26.7836
-26.4353
-26.0805
-25.7199
-25.3529
-24.9836
-24.6161
-24.2496
-23.8849
-23.5236
-23.1678
-22.8178
-22.4758
-22.1405
-21.8163
-21.5004
-21.1931
-20.8949
-20.6083
-20.3323
-20.0676
-19.8145
-19.5754
-19.3508
-19.1405
-18.9465
-18.772
-18.6189
-18.488
-18.3828
-18.3055
-18.2613
-18.2524
-18.283
-18.356
-18.4759
-18.6464
-18.8706
-19.1556
-19.5001
-19.9038
-20.3693
-20.8993
-21.4921
-22.1463
-22.8586
-23.624
-24.4386
-25.2949
-26.1859
-27.1009
-28.0311
-28.9619
-29.8839
-30.784
-31.6492
-32.4671
-33.2224
-33.903
-34.4953
-34.9858
-35.3648
-35.6263
-35.7588
-35.753
-35.6074
-35.3248
-34.8996
-34.33
-33.6228
-32.7842
-31.8217
-30.7403
-29.5551
-28.2818
-26.9326
-25.5182
-24.0583
-22.5711
-21.0721
-19.5765
-18.1022
-16.6668
-15.2836
-13.9696
-12.7345
-11.5905
-10.5469
-9.6091
-8.78652
-8.08604
-7.50879
-7.05237
-6.71969
-6.50975
-6.41747
-6.43579
-6.5599
-6.78301
-7.09555
-7.48761
-7.95001
-8.47671
-9.05333
-9.66866
-10.3139
-10.9818
-11.6606
-12.343
-13.0203
-13.6888
-14.3388
-14.9622
-15.557
-16.1214
-16.6511
-17.1436
-17.5984
-18.0118
-18.3872
-18.7231
-19.0238
-19.2954
-19.5373
-19.7498
-19.9394
-20.1101
-20.2648
-20.4103
-20.5474
-20.6793
-20.8095
-20.9406
-21.0749
-21.2117
-21.3538
-21.5
-21.6504
-21.8048
-21.9587
-22.107
-22.2462
-22.37
-22.4737
-22.5495
-22.5925
-22.5943
-22.55
-22.4528
-22.296
-22.0743
-21.7832
-21.4141
-20.9694
-20.4511
-19.8574
-19.1898
-18.4525
-17.6573
-16.8057
-15.9068
-14.9701
-14.0092
-13.0346
-12.0574
-11.0939
-10.1584
-9.264
-8.42074
-7.64556
-6.9557
-6.35652
-5.85577
-5.46299
-5.1871
-5.02962
-4.99454
-5.08044
-5.28842
-5.61175
-6.04535
-6.58213
-7.2147
-7.93217
-8.71901
-9.5682
-10.4705
-11.4099
-12.3708
-13.344
-14.3164
-15.2766
-16.2151
-17.1207
-17.9831
-18.7944
-19.547
-20.2359
-20.8554
-21.4024
-21.8722
-22.2646
-22.5782
-22.813
-22.967
-23.0423
-23.041
-22.9619
-22.8048
-22.5715
-22.2623
-21.8771
-21.4133
-20.8738
-20.2572
-19.5653
-18.8008
-17.9617
-17.0494
-16.0641
-15.0089
-13.8852
-12.6957
-11.4441
-10.1357
-8.7755
-7.36933
-5.92519
-4.45434
-2.96269
-1.45787
0.0471847
1.5404
3.00997
4.44461
5.83105
7.1589
8.41269
9.58201
10.6533
11.6143
12.4549
13.1674
13.7405
14.1667
14.439
14.5493
14.4976
14.2788
13.896
13.3514
12.6478
11.7859
10.7773
9.6352
8.36595
6.98182
5.49778
3.9295
2.29336
0.609038
-1.10672
-2.83442
-4.55457
-6.24759
-7.894
-9.47189
-10.9665
-12.3583
-13.6352
-14.7858
-15.7967
-16.6609
-17.3696
-17.9206
-18.3097
-18.5367
-18.6046
-18.5196
-18.2877
-17.9187
-17.4242
-16.8192
-16.1142
-15.3218
-14.4597
-13.5422
-12.5863
-11.609
-10.6238
-9.64664
-8.68999
-7.77118
-6.89832
-6.08129
-5.33052
-4.6624
-4.07577
-3.57919
-3.17266
-2.86424
-2.65124
-2.53734
-2.51973
-2.59933
-2.77307
-3.0363
-3.38935
-3.82843
-4.3525
-4.95635
-5.6396
-6.39742
-7.23012
-8.13091
-9.10039
-10.1334
-11.2304
-12.3857
-13.5973
-14.8568
-16.1628
-17.5019
-18.8734
-20.2649
-21.6691
-23.0685
-24.453
-25.8025
-27.1016
-28.3231
-29.4507
-30.4558
-31.3157
-32.0009
-32.4822
-32.7332
-32.7189
-32.4075
-31.7706
-30.784
-29.4178
-27.6542
-25.4679
-22.8471
-19.7767
-16.2546
-12.2778
-7.8567
-3.0023
2.26167
7.90909
13.9021
20.198
26.7441
33.4834
40.3554
47.2842
54.1925
61.0001
67.6225
73.9727
79.9624
85.5054
90.5142
94.9076
98.6049
101.538
103.643
104.866
105.156
104.486
102.832
100.19
96.5658
91.9795
86.4703
80.0809
72.8715
64.9171
56.3084
47.1355
37.4995
27.5153
17.3026
6.98
-3.33143
-13.5089
-23.4351
-32.9939
-42.0785
-50.587
-58.4302
-65.5271
-71.8136
-77.2321
-81.7449
-85.3224
-87.9499
-89.6303
-90.3764
-90.2169
-89.19
-87.3447
-84.7372
-81.436
-77.5129
-73.0462
-68.1182
-62.8106
-57.1994
-51.3732
-45.4126
-39.3926
-33.3834
-27.4517
-21.6525
-16.0434
-10.6673
-5.56519
-0.767418
3.70179
7.82761
11.5976
15.013
18.0717
20.7869
23.1657
25.2273
26.9877
28.4731
29.7026
30.7036
31.4988
32.1126
32.5713
32.8953
33.1114
33.2405
33.3021
33.3095
33.2814
33.2294
33.1663
33.0962
33.0296
32.9687
32.919
32.8769
32.8456
32.8177
32.7942
32.7639
32.7282
32.6762
32.6061
32.5067
32.3758
32.1984
31.9769
31.7008
31.3706
30.9825
30.5364
30.0346
29.4765
28.8645
28.2033
27.5018
26.7646
26.0034
25.2255
24.4471
23.6741
22.9246
22.2035
21.5284
20.9031
20.3397
19.8452
19.4283
19.0926
18.8432
18.68
18.6008
18.6036
18.6834
18.8341
19.0457
19.3102
19.619
19.9586
20.3159
20.6801
21.0453
21.3955
21.723
22.0173
22.2733
22.4855
22.6523
22.7712
22.8447
22.8748
22.8614
22.8142
22.7419
22.6508
22.5452
22.4375
22.3352
22.2481
22.1838
22.1488
22.1479
22.1858
22.2655
22.3873
22.5537
22.7591
23.0005
23.2722
23.5695
23.8839
24.2072
24.5315
24.8489
25.1496
25.4245
25.6671
25.8719
26.0324
26.1422
26.2011
26.2079
26.1633
26.0683
25.9275
25.7398
25.5175
25.268
24.9998
24.7201
24.4406
24.1684
23.9152
23.6913
23.5034
23.3583
23.2637
23.2235
23.2421
23.3229
23.4651
23.6696
23.9318
24.249
24.6133
25.0187
25.4548
25.9113
26.379
26.8469
27.3051
27.7453
28.1549
28.5214
28.8385
29.0954
29.2891
29.4154
29.4711
29.4552
29.3682
29.2135
28.9959
28.7206
28.3976
28.0384
27.6522
27.254
26.8547
26.4685
26.1085
25.7885
25.5211
25.3179
25.1909
25.1476
25.1988
25.3536
25.6142
25.9823
26.46
27.046
27.7372
28.5287
29.4135
30.3872
31.4357
32.5466
33.7096
34.9135
36.1427
37.3794
38.6149
39.8391
41.0373
42.1998
43.3141
44.3728
45.3655
46.285
47.1265
47.891
48.5705
49.1635
49.6713
50.0957
50.4387
50.7039
50.8964
51.0179
51.0785
51.0852
51.0445
50.9667
50.8575
50.7238
50.5748
50.4223
50.2694
50.1263
49.9956
49.8829
49.7927
49.7294
49.6952
49.6953
49.7265
49.7859
49.8736
49.9877
50.122
50.269
50.4233
50.5742
50.7152
50.8383
50.9319
50.9852
50.9884
50.9313
50.8041
50.5974
50.3017
49.9083
49.4118
48.8062
48.0888
47.2576
46.3129
45.259
44.0951
42.8273
41.4592
40.0033
38.4624
36.8425
35.1569
33.4192
31.6359
29.8167
27.9719
26.1082
24.2365
22.3672
20.5047
18.6556
16.8227
15.0076
13.2145
11.4473
9.70319
7.97896
6.27675
4.59477
2.93107
1.28435
-0.34672
-1.96136
-3.56179
-5.15186
-6.7267
-8.28281
-9.82059
-11.3368
-12.8277
-14.2863
-15.7117
-17.1037
-18.4525
-19.7517
-20.9982
-22.1899
-23.3197
-24.3861
-25.3863
-26.3202
-27.1864
-27.9867
-28.7226
-29.3975
-30.0156
-30.579
-31.0964
-31.5757
-32.0209
-32.4386
-32.8365
-33.2192
-33.5946
-33.9653
-34.3395
-34.7213
-35.1138
-35.5198
-35.9407
-36.3752
-36.8232
-37.2855
-37.7575
-38.2374
-38.7176
-39.1917
-39.6558
-40.1076
-40.5371
-40.9396
-41.307
-41.6331
-41.9113
-42.1414
-42.3132
-42.4212
-42.4612
-42.4294
-42.3243
-42.1446
-41.8889
-41.5558
-41.1475
-40.6694
-40.1215
-39.508
-38.8343
-38.1054
-37.3296
-36.5156
-35.6729
-34.8148
-33.949
-33.0853
-32.2375
-31.4187
-30.6396
-29.915
-29.254
-28.668
-28.1663
-27.758
-27.4514
-27.2562
-27.1723
-27.2013
-27.3447
-27.6026
-27.9694
-28.4391
-29.0033
-29.6505
-30.3701
-31.1506
-31.9759
-32.8309
-33.6979
-34.5571
-35.3953
-36.1949
-36.9415
-37.6225
-38.2248
-38.74
-39.1577
-39.472
-39.6795
-39.7769
-39.7664
-39.6519
-39.4398
-39.1372
-38.7543
-38.3004
-37.7901
-37.2376
-36.6552
-36.0578
-35.4578
-34.8655
-34.2938
-33.7549
-33.2551
-32.8002
-32.3937
-32.0383
-31.7337
-31.4801
-31.2696
-31.0958
-30.9516
-30.8255
-30.71
-30.5952
-30.4719
-30.3278
-30.1563
-29.9513
-29.7056
-29.4123
-29.0695
-28.6765
-28.2348
-27.7436
-27.2116
-26.6504
-26.065
-25.4667
-24.866
-24.2754
-23.7084
-23.1804
-22.7017
-22.2835
-21.9386
-21.6731
-21.4969
-21.4182
-21.4379
-21.5582
-21.7766
-22.091
-22.4948
-22.9795
-23.5365
-24.1569
-24.8272
-25.5361
-26.2683
-27.012
-27.7527
-28.4757
-29.1705
-29.8272
-30.4372
-30.9917
-31.4857
-31.914
-32.2755
-32.5687
-32.7956
-32.9563
-33.057
-33.0997
-33.0932
-33.0446
-32.9608
-32.8487
-32.7146
-32.5642
-32.4039
-32.2376
-32.0699
-31.9051
-31.7432
-31.5852
-31.43
-31.2797
-31.128
-30.9712
-30.8052
-30.6296
-30.4359
-30.2185
-29.9735
-29.6972
-29.3854
-29.034
-28.6425
-28.2131
-27.7439
-27.2309
-26.6829
-26.1048
-25.5027
-24.8844
-24.2572
-23.628
-23.0094
-22.4105
-21.8443
-21.3258
-20.8614
-20.4565
-20.1257
-19.8819
-19.7283
-19.67
-19.7116
-19.8575
-20.1065
-20.4562
-20.9036
-21.4467
-22.0741
-22.7727
-23.5345
-24.3493
-25.2002
-26.0695
-26.9441
-27.8114
-28.6512
-29.4462
-30.1819
-30.8459
-31.4231
-31.9037
-32.2754
-32.5339
-32.6689
-32.6719
-32.5463
-32.2937
-31.9169
-31.4169
-30.8045
-30.0897
-29.2828
-28.3963
-27.444
-26.4434
-25.4079
-24.3546
-23.2983
-22.2595
-21.2484
-20.2777
-19.3614
-18.513
-17.7401
-17.0493
-16.4481
-15.9376
-15.5211
-15.195
-14.9595
-14.808
-14.7365
-14.7329
-14.792
-14.9086
-15.0664
-15.2539
-15.458
-15.6658
-15.8656
-16.0445
-16.1922
-16.2987
-16.3551
-16.3526
-16.2854
-16.1486
-15.9372
-15.6439
-15.2714
-14.8191
-14.2879
-13.677
-12.9918
-12.2406
-11.4234
-10.5417
-9.6052
-8.61981
-7.59283
-6.53118
-5.44185
-4.33472
-3.21389
-2.08645
-0.960072
0.156199
1.25778
2.33847
3.3924
4.41159
5.39322
6.33159
7.22331
8.06692
8.85611
9.58956
10.2622
10.8734
11.4195
11.9009
12.3135
12.6577
12.9306
13.1309
13.2582
13.3096
13.2871
13.1893
13.0165
12.7686
12.4456
12.0447
11.5691
11.0197
10.3968
9.70374
8.94091
8.10995
7.21421
6.25682
5.24161
4.17542
3.0627
1.90812
0.718438
-0.498285
-1.73546
-2.98317
-4.23632
-5.48695
-6.72723
-7.95025
-9.14713
-10.3108
-11.4329
-12.5074
-13.5278
-14.4884
-15.3836
-16.2127
-16.9684
-17.6466
-18.2451
-18.7631
-19.1986
-19.5515
-19.8216
-20.0078
-20.1137
-20.1413
-20.0924
-19.9754
-19.7896
-19.5439
-19.2385
-18.8807
-18.4745
-18.0327
-17.5548
-17.047
-16.5185
-15.9777
-15.4326
-14.8913
-14.363
-13.8548
-13.376
-12.9301
-12.5314
-12.1867
-11.904
-11.6897
-11.5504
-11.4867
-11.5071
-11.6111
-11.8034
-12.0819
-12.447
-12.8907
-13.4124
-13.9954
-14.6384
-15.3187
-16.033
-16.7586
-17.4827
-18.1782
-18.8292
-19.4135
-19.9032
-20.2723
-20.493
-20.5427
-20.3876
-20.0042
-19.3632
-18.4456
-17.2224
-15.678
-13.7909
-11.5521
-8.94668
-5.97454
-2.63297
1.06306
5.11089
9.49324
14.1827
19.1446
24.3438
29.7319
35.259
40.8655
46.4887
52.0613
57.5073
62.7476
67.7055
72.3028
76.4557
80.0825
83.1085
85.4596
87.0703
87.8809
87.8405
86.9096
85.0557
82.2582
78.5155
73.8395
68.25
61.7877
54.5011
46.4568
37.7317
28.4136
18.6077
8.4289
-2.00799
-12.581
-23.1585
-33.6103
-43.8062
-53.6214
-62.9309
-71.621
-79.5843
-86.7252
-92.9605
-98.2196
-102.452
-105.62
-107.703
-108.699
-108.617
-107.487
-105.351
-102.261
-98.2936
-93.5334
-88.0676
-81.9961
-75.4229
-68.4574
-61.2074
-53.7782
-46.2808
-38.819
-31.4862
-24.3673
-17.5469
-11.0929
-5.06751
0.483379
5.51895
10.0142
13.9542
17.3401
20.1717
22.4649
24.2426
25.5402
26.3882
26.8331
26.9155
26.6848
26.1859
25.4674
24.5772
23.5635
22.4675
21.33
20.189
19.0724
18.0143
17.0371
16.1659
15.4187
14.8072
14.334
14.0126
13.8442
13.8303
13.9628
14.2434
14.6569
15.2044
15.8685
16.6472
17.5213
18.4858
19.5204
20.6205
21.7677
22.9524
24.1598
25.3777
26.5944
27.7925
28.965
30.0921
31.1611
32.1579
33.0743
33.8954
34.6142
35.2173
35.7027
36.0586
36.2803
36.3634
36.3112
36.1214
35.7956
35.3387
34.7608
34.0688
33.2747
32.3894
31.4286
30.4061
29.3386
28.2418
27.1401
26.0435
24.9689
23.9312
22.9456
22.0249
21.1788
20.4188
19.7524
19.1845
18.7148
18.3457
18.0734
17.8979
17.8131
17.8115
17.8823
18.0194
18.2155
18.4576
18.7382
19.0473
19.3757
19.716
20.064
20.4135
20.7605
21.1046
21.4458
21.7857
22.1278
22.4739
22.8279
23.1959
23.5797
23.9859
24.4191
24.8833
25.3798
25.9122
26.4812
27.0861
27.7215
28.3849
29.0757
29.7838
30.5044
31.2245
31.9363
32.6282
33.2882
33.9067
34.4788
34.9906
35.4308
35.7942
36.0727
36.2646
36.3667
36.3785
36.3036
36.1448
35.9046
35.5931
35.2211
34.7996
34.3386
33.8532
33.3604
32.8731
32.4032
31.9683
31.5834
31.262
31.0155
30.8559
30.792
30.8337
30.9866
31.2552
31.6451
32.1532
32.7745
33.5067
34.3468
35.2843
36.3087
37.4087
38.5726
39.7867
41.0401
42.3149
43.5981
44.8732
46.1214
47.3331
48.4984
49.602
50.6306
51.576
52.4291
53.1847
53.8349
54.3776
54.8073
55.128
55.3433
55.4535
55.4665
55.3846
55.215
54.9654
54.6482
54.2694
53.8405
53.3699
52.8717
52.3532
51.8243
51.2934
50.7716
50.2641
49.7759
49.3138
48.8822
48.4846
48.1197
47.7917
47.4978
47.2396
47.0154
46.8224
46.6595
46.5218
46.4112
46.3189
46.2415
46.1762
46.12
46.0699
46.0286
45.9909
45.9511
45.9123
45.878
45.8433
45.8054
45.7656
45.7256
45.6839
45.6387
45.59
45.5396
45.4827
45.4193
45.3454
45.2616
45.1618
45.0414
44.897
44.7273
44.526
44.2857
44.0051
43.6834
43.3134
42.8933
42.4192
41.8894
41.3018
40.6537
39.9454
39.178
38.3516
37.4643
36.5204
35.5227
34.4737
33.3752
32.2311
31.0463
29.8219
28.5602
27.2643
25.9391
24.5846
23.1997
21.7879
20.3523
18.8919
17.4072
15.8979
14.3677
12.8132
11.2312
9.62518
7.9963
6.34478
4.67213
2.98005
1.26872
-0.455239
-2.1898
-3.92778
-5.66049
-7.38338
-9.08912
-10.7699
-12.4159
-14.0205
-15.5769
-17.0747
-18.504
-19.8596
-21.1384
-22.3315
-23.4328
-24.4409
-25.3565
-26.1775
-26.9072
-27.547
-28.101
-28.5748
-28.976
-29.3134
-29.5975
-29.8372
-30.0363
-30.2124
-30.3809
-30.5476
-30.7169
-30.9033
-31.1206
-31.3701
-31.6589
-31.99
-32.3667
-32.7897
-33.2603
-33.7749
-34.3325
-34.9255
-35.5441
-36.1851
-36.8452
-37.5103
-38.1686
-38.8135
-39.4365
-40.027
-40.5762
-41.076
-41.5201
-41.901
-42.2113
-42.4506
-42.6214
-42.7178
-42.7406
-42.6915
-42.5768
-42.3978
-42.1582
-41.8654
-41.5274
-41.1501
-40.7375
-40.3004
-39.8456
-39.3799
-38.9102
-38.4429
-37.9889
-37.5461
-37.1151
-36.7013
-36.3098
-35.9374
-35.5863
-35.2538
-34.9409
-34.6417
-34.3535
-34.073
-33.7985
-33.5247
-33.2454
-32.9601
-32.6638
-32.3558
-32.0362
-31.7025
-31.3531
-30.9896
-30.6109
-30.2217
-29.8254
-29.4261
-29.0264
-28.6339
-28.2554
-27.8964
-27.5625
-27.2608
-26.9983
-26.7798
-26.6112
-26.4972
-26.445
-26.4528
-26.5213
-26.6513
-26.8427
-27.0907
-27.3883
-27.7327
-28.1197
-28.5375
-28.9778
-29.4296
-29.8797
-30.3194
-30.7406
-31.1289
-31.4731
-31.7654
-31.9946
-32.1563
-32.2477
-32.2619
-32.1987
-32.0567
-31.8396
-31.5506
-31.1977
-30.7884
-30.3329
-29.8419
-29.3284
-28.8068
-28.292
-27.7974
-27.3367
-26.9254
-26.573
-26.2965
-26.1054
-26.0107
-26.0172
-26.1331
-26.3626
-26.7064
-27.1635
-27.73
-28.4021
-29.1713
-30.0272
-30.9575
-31.9501
-32.9897
-34.0581
-35.1397
-36.2166
-37.2718
-38.2905
-39.2517
-40.1395
-40.9363
-41.6296
-42.2021
-42.6419
-42.9394
-43.0831
-43.0692
-42.8961
-42.5604
-42.0619
-41.4047
-40.592
-39.6355
-38.5462
-37.3359
-36.0221
-34.6204
-33.148
-31.6257
-30.0753
-28.5184
-26.9791
-25.4773
-24.0341
-22.6714
-21.4101
-20.2666
-19.2579
-18.3967
-17.694
-17.1565
-16.7899
-16.5949
-16.5669
-16.7014
-16.9929
-17.4265
-17.987
-18.6558
-19.4145
-20.2401
-21.1068
-21.9927
-22.8736
-23.7261
-24.5273
-25.2552
-25.8885
-26.4126
-26.8157
-27.0834
-27.2038
-27.1776
-27.0068
-26.6913
-26.2359
-25.6525
-24.9552
-24.1578
-23.2766
-22.3321
-21.3468
-20.3375
-19.3237
-18.3245
-17.3575
-16.4376
-15.5812
-14.7954
-14.0849
-13.4551
-12.9092
-12.4418
-12.0465
-11.7143
-11.4356
-11.1953
-10.9756
-10.7614
-10.5354
-10.2805
-9.97975
-9.6186
-9.18134
-8.65827
-8.04176
-7.32651
-6.51148
-5.59684
-4.58176
-3.48005
-2.30077
-1.06068
0.224012
1.5337
2.84833
4.14564
5.40493
6.60413
7.72202
8.73954
9.6432
10.4156
11.0429
11.5194
11.8357
11.9958
12.0014
11.8611
11.5855
11.188
10.6851
10.0959
9.44251
8.74708
8.03038
7.31802
6.63533
6.0028
5.43983
4.96509
4.59621
4.34362
4.21525
4.21751
4.35639
4.62636
5.02362
5.53786
6.16325
6.8792
7.66423
8.50318
9.37731
10.2637
11.1411
11.9878
12.7843
13.5107
14.1444
14.6758
15.0965
15.3932
15.5589
15.5898
15.4839
15.2465
14.8822
14.4003
13.813
13.1319
12.368
11.5399
10.6631
9.7558
8.83242
7.91117
7.00896
6.13809
5.30894
4.5331
3.82157
3.17768
2.60514
2.10536
1.68059
1.32469
1.02914
0.790925
0.598887
0.446567
0.317555
0.206769
0.101878
-0.00722432
-0.139143
-0.296546
-0.485393
-0.716579
-1.00477
-1.34716
-1.74107
-2.1938
-2.70607
-3.27596
-3.89506
-4.56414
-5.27924
-6.03129
-6.80482
-7.59795
-8.3959
-9.19461
-9.97705
-10.7403
-11.4689
-12.1579
-12.7889
-13.3609
-13.8605
-14.2811
-14.6048
-14.8307
-14.9483
-14.9479
-14.8154
-14.5432
-14.1226
-13.538
-12.7783
-11.8295
-10.6799
-9.31456
-7.7249
-5.89468
-3.81393
-1.47157
1.13634
4.0178
7.16782
10.5924
14.2846
18.2349
22.42
26.8273
31.4322
36.1991
41.0819
46.0436
51.0359
56.0004
60.8729
65.594
70.0991
74.3156
78.1749
81.6049
84.5361
86.9027
88.6406
89.6965
90.0244
89.5797
88.3303
86.2552
83.3465
79.6036
75.0395
69.6816
63.5718
56.7573
49.3001
41.2752
32.7665
23.8657
14.6698
5.28743
-4.1735
-13.6
-22.8832
-31.9078
-40.5662
-48.7567
-56.3886
-63.3694
-69.6215
-75.0796
-79.6894
-83.4094
-86.2114
-88.0834
-89.0303
-89.061
-88.1963
-86.4823
-83.9715
-80.7244
-76.8103
-72.3107
-67.3121
-61.9027
-56.1709
-50.2161
-44.1343
-38.0152
-31.9447
-26.0104
-20.2916
-14.8571
-9.76716
-5.07785
-0.832214
2.93557
6.20498
8.95852
11.1961
12.9212
14.1558
14.9162
15.2377
15.1539
14.7087
13.9489
12.9277
11.6967
10.3109
8.82271
7.28492
5.75009
4.26418
2.87296
1.61345
0.523485
-0.370269
-1.04214
-1.47607
-1.65761
-1.58337
-1.25108
-0.674268
0.145326
1.18868
2.43979
3.86869
5.45773
7.1765
8.99588
10.8793
12.8024
14.7284
16.6313
18.4778
20.246
21.9084
23.445
24.8391
26.073
27.1351
28.0148
28.7055
29.2068
29.5241
29.6567
29.6127
29.401
29.0349
28.5265
27.8985
27.1613
26.3325
25.43
24.4779
23.4892
22.4828
21.4716
20.4737
19.5014
18.5649
17.6749
16.8433
16.0744
15.3732
14.7413
14.1778
13.6844
13.2586
12.8977
12.5979
12.355
12.1611
12.0127
11.9026
11.8278
11.7835
11.7644
11.7663
11.7873
11.8226
11.8728
11.9362
12.0162
12.1163
12.236
12.3794
12.5497
12.7505
12.9853
13.262
13.5809
13.9432
14.3528
14.8139
15.3257
15.8872
16.4974
17.1546
17.8555
18.5957
19.3684
20.1696
20.9906
21.8222
22.6562
23.484
24.2979
25.088
25.8473
26.5694
27.2473
27.8732
28.4437
28.9575
29.4111
29.801
30.1293
30.3973
30.6095
30.7703
30.8831
30.9538
30.9895
30.9947
30.9788
30.9498
30.9153
30.8807
30.8537
30.8408
30.8477
30.8818
30.9446
31.04
31.1704
31.3367
31.5392
31.7799
32.0571
32.3681
32.7123
33.0866
33.4901
33.917
34.3678
34.8407
35.3337
35.8434
36.369
36.9094
37.4651
38.0344
38.6173
39.2165
39.8301
40.4532
41.0891
41.7418
42.4073
43.0822
43.7665
44.4621
45.1629
45.867
46.5682
47.2607
47.9412
48.6049
49.2442
49.8579
50.4355
50.9709
51.4571
51.8893
52.2633
52.5767
52.8253
53.0077
53.1241
53.1795
53.1731
53.1087
52.994
52.8347
52.6398
52.4229
52.1918
51.9546
51.7265
51.5232
51.3531
51.2264
51.1544
51.1466
51.2122
51.359
51.5908
51.9127
52.3242
52.8258
53.4122
54.0797
54.8195
55.6224
56.4756
57.3658
58.2794
59.2022
60.1157
61.0059
61.8547
62.6432
63.357
63.9815
64.504
64.9148
65.2009
65.3577
65.3754
65.251
64.9818
64.5713
64.0193
63.3307
62.5113
61.5696
60.5154
59.3567
58.1066
56.7776
55.3824
53.9319
52.4394
50.9184
49.3793
47.833
46.2881
44.7516
43.2333
41.7377
40.2707
38.8356
37.4352
36.0689
34.7376
33.4429
32.1797
30.9433
29.7292
28.5332
27.3487
26.1698
24.9884
23.7995
22.5933
21.3628
20.099
18.7968
17.4466
16.0429
14.578
13.0469
11.4462
9.76915
8.01823
6.19439
4.2993
2.33411
0.307341
-1.77403
-3.89905
-6.05807
-8.23509
-10.4132
-12.5773
-14.7092
-16.7906
-18.7977
-20.7142
-22.5226
-24.2032
-25.7355
-27.1079
-28.3088
-29.3269
-30.1562
-30.7913
-31.233
-31.4843
-31.5531
-31.4501
-31.1938
-30.799
-30.283
-29.6727
-28.9977
-28.2807
-27.5496
-26.8312
-26.154
-25.5421
-25.0152
-24.5969
-24.3078
-24.1579
-24.1552
-24.3064
-24.6152
-25.0752
-25.6766
-26.4076
-27.2565
-28.2
-29.2169
-30.2813
-31.3641
-32.4417
-33.4874
-34.4754
-35.3838
-36.1867
-36.861
-37.3922
-37.7699
-37.9812
-38.0194
-37.8838
-37.5785
-37.109
-36.4866
-35.7233
-34.839
-33.8496
-32.7711
-31.63
-30.4511
-29.2557
-28.0656
-26.901
-25.7838
-24.7283
-23.7487
-22.8564
-22.0644
-21.3751
-20.7955
-20.3219
-19.9522
-19.6812
-19.5023
-19.4065
-19.385
-19.4254
-19.5145
-19.6416
-19.7946
-19.9641
-20.1389
-20.3124
-20.4787
-20.6322
-20.7666
-20.8836
-20.9832
-21.0683
-21.1385
-21.2012
-21.2623
-21.3273
-21.3985
-21.4863
-21.5971
-21.7353
-21.9062
-22.1117
-22.3575
-22.6403
-22.9594
-23.311
-23.693
-24.0974
-24.5196
-24.9484
-25.3791
-25.7971
-26.1919
-26.5539
-26.8774
-27.1484
-27.3557
-27.494
-27.5553
-27.5371
-27.4342
-27.2489
-26.9809
-26.635
-26.2123
-25.725
-25.1816
-24.5935
-23.9723
-23.3332
-22.6922
-22.0631
-21.4591
-20.8973
-20.3932
-19.9585
-19.6059
-19.3453
-19.1844
-19.1291
-19.1818
-19.3435
-19.6119
-19.9828
-20.4509
-21.0042
-21.6295
-22.3138
-23.0445
-23.801
-24.561
-25.3105
-26.0328
-26.7072
-27.3162
-27.8445
-28.2783
-28.6053
-28.8142
-28.8986
-28.855
-28.6813
-28.3797
-27.9537
-27.4096
-26.7581
-26.0113
-25.184
-24.2932
-23.3551
-22.3894
-21.4147
-20.4553
-19.5246
-18.6401
-17.8186
-17.0778
-16.4285
-15.8775
-15.4382
-15.1196
-14.9226
-14.8508
-14.9004
-15.0639
-15.3398
-15.7197
-16.195
-16.7593
-17.3972
-18.0958
-18.8435
-19.6244
-20.4283
-21.2437
-22.0575
-22.8549
-23.6295
-24.37
-25.0709
-25.7253
-26.3272
-26.8724
-27.3566
-27.7776
-28.1325
-28.4192
-28.6369
-28.7819
-28.8566
-28.8622
-28.7971
-28.6594
-28.4509
-28.1696
-27.8172
-27.397
-26.9058
-26.345
-25.7147
-25.0168
-24.2516
-23.4214
-22.5286
-21.5794
-20.5761
-19.5237
-18.4281
-17.2934
-16.1302
-14.9472
-13.7528
-12.5551
-11.3653
-10.1935
-9.05047
-7.94445
-6.88772
-5.88763
-4.95629
-4.10654
-3.34322
-2.67126
-2.09966
-1.6359
-1.28261
-1.04276
-0.919302
-0.914692
-1.02752
-1.25549
-1.59663
-2.04805
-2.60505
-3.25921
-4.00646
-4.84375
-5.75846
-6.7407
-7.78256
-8.87976
-10.0165
-11.1796
-12.3619
-13.557
-14.7506
-15.9335
-17.0946
-18.2226
-19.3104
-20.3505
-21.3343
-22.2525
-23.1008
-23.8708
-24.562
-25.1696
-25.6924
-26.1312
-26.4854
-26.7557
-26.9445
-27.06
-27.1018
-27.0749
-26.9864
-26.8435
-26.6525
-26.4243
-26.1624
-25.8731
-25.5644
-25.2417
-24.9124
-24.5822
-24.2548
-23.9328
-23.6188
-23.3169
-23.0253
-22.7437
-22.4695
-22.1999
-21.9333
-21.669
-21.4008
-21.1302
-20.8498
-20.5539
-20.2429
-19.9106
-19.561
-19.1953
-18.8141
-18.4169
-18.0098
-17.5928
-17.1749
-16.7618
-16.3603
-15.9731
-15.6117
-15.2788
-14.9839
-14.7296
-14.5238
-14.3682
-14.266
-14.2097
-14.204
-14.2413
-14.3178
-14.4223
-14.545
-14.6727
-14.7885
-14.8779
-14.9184
-14.8911
-14.773
-14.5467
-14.1867
-13.6768
-12.993
-12.1201
-11.0394
-9.74135
-8.2141
-6.45391
-4.45806
-2.23188
0.217487
2.8729
5.71828
8.73125
11.8793
15.1232
18.4276
21.7503
25.0421
28.2527
31.3285
34.213
36.8534
39.1948
41.1838
42.7707
43.9064
44.548
44.6588
44.2066
43.169
41.5325
39.2882
36.4394
32.9954
28.9783
24.417
19.3514
13.8296
7.90811
1.64992
-4.87551
-11.5918
-18.4168
-25.269
-32.0632
-38.7161
-45.1451
-51.2666
-57.005
-62.2883
-67.0513
-71.2355
-74.7893
-77.676
-79.8684
-81.3445
-82.0954
-82.1237
-81.4414
-80.0721
-78.0515
-75.4186
-72.2222
-68.5195
-64.3733
-59.8512
-55.0219
-49.9599
-44.7351
-39.4243
-34.1031
-28.8364
-23.687
-18.7168
-13.9777
-9.51894
-5.38082
-1.59758
1.80203
4.80331
7.39821
9.58118
11.3588
12.7394
13.7398
14.3821
14.6971
14.7119
14.4612
13.9789
13.303
12.4712
11.5233
10.4926
9.41223
8.31592
7.23039
6.18423
5.19738
4.29239
3.48197
2.7804
2.19244
1.72563
1.37967
1.15366
1.03531
1.02485
1.11255
1.2883
1.53733
1.84912
2.20547
2.59918
3.01205
3.43725
3.8631
4.27996
4.67673
5.04944
5.39464
5.70679
5.98504
6.22772
6.43844
6.61629
6.7677
6.8939
7.0032
7.09837
7.18938
7.27973
7.37948
7.49107
7.6231
7.77913
7.96783
8.18998
8.45181
8.75411
9.09667
9.48276
9.9163
10.3938
10.9129
11.4729
12.0713
12.7045
13.3701
14.0628
14.7768
15.5078
16.2461
16.9901
17.7341
18.4722
19.201
19.9108
20.5903
21.2386
21.8487
22.414
22.9263
23.3817
23.7745
24.0993
24.3496
24.522
24.6152
24.6226
24.5419
24.3715
24.1083
23.7544
23.3157
22.7913
22.1806
21.4927
20.7359
19.9157
19.0383
18.1149
17.1564
16.1741
15.18
14.1861
13.205
12.2495
11.3317
10.4649
9.66204
8.93339
8.28776
7.73569
7.28511
6.94262
6.7113
6.59654
6.60067
6.724
6.96522
7.32049
7.78207
8.348
9.01057
9.76135
10.5923
11.493
12.4523
13.4592
14.5018
15.5702
16.6586
17.7512
18.8388
19.9119
20.9618
21.981
22.9668
23.9105
24.8076
25.6542
26.4494
27.1907
27.8768
28.5097
29.0904
29.6238
30.1163
30.5691
30.9845
31.3728
31.7395
32.0934
32.4454
32.8009
33.1667
33.5527
33.9639
34.4115
34.9082
35.4561
36.0623
36.731
37.464
38.2657
39.1393
40.083
41.0939
42.1691
43.3016
44.4865
45.712
46.9713
48.251
49.5408
50.8274
52.0967
53.3362
54.5302
55.6645
56.7254
57.7038
58.5848
59.3601
60.0189
60.5561
60.9658
61.2504
61.4043
61.4288
61.3283
61.1097
60.7802
60.3492
59.8276
59.227
58.562
57.8489
57.0998
56.3326
55.5591
54.7949
54.053
53.3477
52.6882
52.0881
51.5547
51.0936
50.7115
50.4133
50.2
50.0734
50.0299
50.0655
50.1753
50.3514
50.5856
50.8688
51.1904
51.5397
51.9034
52.2687
52.6235
52.9594
53.2588
53.5107
53.7011
53.818
53.8511
53.7908
53.628
53.3553
52.9652
52.4511
51.8097
51.0379
50.1343
49.0967
47.9281
46.632
45.2106
43.6681
42.0117
40.25
38.3901
36.4435
34.4186
32.3261
30.1766
27.9857
25.7623
23.5196
21.2665
19.0165
16.7776
14.5563
12.3645
10.2104
8.10042
6.03577
4.02431
2.06791
0.170373
-1.67255
-3.45458
-5.17443
-6.83528
-8.44017
-9.98968
-11.4861
-12.9308
-14.3228
-15.6659
-16.9583
-18.2021
-19.4005
-20.55
-21.645
-22.6873
-23.6744
-24.6045
-25.4784
-26.29
-27.0376
-27.7181
-28.327
-28.8662
-29.3389
-29.7415
-30.0751
-30.3415
-30.5431
-30.6835
-30.7655
-30.7952
-30.778
-30.7189
-30.6206
-30.4914
-30.3357
-30.1599
-29.966
-29.7619
-29.5534
-29.3417
-29.1299
-28.9192
-28.7132
-28.5096
-28.3095
-28.111
-27.9158
-27.7187
-27.5195
-27.3122
-27.0991
-26.872
-26.6266
-26.3615
-26.075
-25.7637
-25.4272
-25.0635
-24.6708
-24.2512
-23.8096
-23.3451
-22.8625
-22.3643
-21.8536
-21.3375
-20.8255
-20.3217
-19.8318
-19.3636
-18.9262
-18.5256
-18.1681
-17.8615
-17.6113
-17.4247
-17.3083
-17.2639
-17.2972
-17.4072
-17.5928
-17.8543
-18.1915
-18.5982
-19.0661
-19.5915
-20.1687
-20.7869
-21.4372
-22.108
-22.7873
-23.4633
-24.1211
-24.7511
-25.3426
-25.8827
-26.3586
-26.7624
-27.0864
-27.3213
-27.4582
-27.4952
-27.4312
-27.2632
-26.9909
-26.6173
-26.1468
-25.5845
-24.9371
-24.2134
-23.4239
-22.5788
-21.6887
-20.7663
-19.8257
-18.8788
-17.9422
-17.023
-16.1307
-15.2777
-14.4739
-13.7278
-13.0454
-12.4349
-11.8989
-11.4431
-11.066
-10.7712
-10.5618
-10.4333
-10.3809
-10.4047
-10.5011
-10.6653
-10.896
-11.1844
-11.5239
-11.9098
-12.3347
-12.7953
-13.2855
-13.8005
-14.3367
-14.8866
-15.4417
-15.9998
-16.5535
-17.1002
-17.639
-18.1607
-18.658
-19.1284
-19.5685
-19.9726
-20.3383
-20.6595
-20.9336
-21.1564
-21.3235
-21.4345
-21.4906
-21.488
-21.4274
-21.3087
-21.1358
-20.9097
-20.6331
-20.3111
-19.9483
-19.5517
-19.1262
-18.6812
-18.2257
-17.7673
-17.3161
-16.8785
-16.4606
-16.0722
-15.7195
-15.4104
-15.1519
-14.9486
-14.8046
-14.7226
-14.7047
-14.7513
-14.8647
-15.0403
-15.2724
-15.5606
-15.8989
-16.2834
-16.7079
-17.1661
-17.6533
-18.1597
-18.6753
-19.1955
-19.7131
-20.2214
-20.7143
-21.1858
-21.6348
-22.0522
-22.4292
-22.7675
-23.0657
-23.3193
-23.526
-23.6853
-23.7969
-23.8583
-23.8696
-23.8302
-23.7395
-23.5974
-23.4034
-23.1575
-22.8586
-22.5071
-22.104
-21.648
-21.1362
-20.5725
-19.9599
-19.2968
-18.5817
-17.8191
-17.0133
-16.1657
-15.2771
-14.3554
-13.4064
-12.4346
-11.4452
-10.4455
-9.44318
-8.44475
-7.45882
-6.49166
-5.55204
-4.64507
-3.77755
-2.95623
-2.18298
-1.46534
-0.806016
-0.209893
0.322823
0.788213
1.18288
1.50952
1.7707
1.96545
2.09634
2.16536
2.17562
2.12976
2.02685
1.87301
1.67082
1.42357
1.133
0.803396
0.436575
0.035055
-0.402996
-0.87194
-1.3707
-1.89653
-2.4438
-3.01407
-3.60561
-4.21581
-4.84561
-5.48864
-6.13904
-6.79641
-7.45728
-8.11935
-8.78111
-9.43766
-10.0848
-10.7212
-11.3453
-11.9548
-12.5496
-13.128
-13.6856
-14.2269
-14.7521
-15.2628
-15.7602
-16.2472
-16.7242
-17.1956
-17.6623
-18.1286
-18.6008
-19.0757
-19.5551
-20.0385
-20.5249
-21.0122
-21.4989
-21.9797
-22.4511
-22.9054
-23.3358
-23.7346
-24.0969
-24.409
-24.664
-24.8504
-24.9593
-24.9827
-24.9181
-24.7559
-24.4962
-24.1326
-23.6657
-23.0976
-22.4301
-21.6733
-20.836
-19.9315
-18.9711
-17.9741
-16.9571
-15.9406
-14.9395
-13.9798
-13.0825
-12.2683
-11.5513
-10.9535
-10.4873
-10.1684
-9.99935
-9.99202
-10.1436
-10.4564
-10.9193
-11.5253
-12.2565
-13.0944
-14.0148
-14.9886
-15.9831
-16.9645
-17.8989
-18.7456
-19.4661
-20.0202
-20.3718
-20.4823
-20.3205
-19.8527
-19.0579
-17.9095
-16.3933
-14.4972
-12.2213
-9.56599
-6.5447
-3.17371
0.520467
4.5046
8.73822
13.1745
17.7563
22.4284
27.1271
31.7859
36.332
40.6966
44.8055
48.5893
51.9795
54.9094
57.3152
59.1424
60.3416
60.8711
60.7006
59.8032
58.1647
55.7825
52.6645
48.8288
44.3075
39.1383
33.3724
27.0671
20.2907
13.1186
5.63323
-2.0789
-9.92876
-17.8213
-25.6613
-33.356
-40.8133
-47.9444
-54.6646
-60.8987
-66.5797
-71.6434
-76.0345
-79.7145
-82.6536
-84.8298
-86.2332
-86.8666
-86.7449
-85.8886
-84.3332
-82.1181
-79.2927
-75.9142
-72.0458
-67.7545
-63.1128
-58.192
-53.0707
-47.8173
-42.4994
-37.1895
-31.952
-26.8483
-21.9305
-17.2502
-12.8469
-8.75887
-5.01112
-1.62833
1.37661
3.9946
6.23061
8.085
9.57178
10.7033
11.5013
11.9872
12.1884
12.1324
11.8518
11.3753
10.732
9.95444
9.06846
8.10766
7.09831
6.06658
5.0341
4.02391
3.05588
2.14563
1.30191
0.542519
-0.127717
-0.696551
-1.1618
-1.51717
-1.76578
-1.90424
-1.9401
-1.87193
-1.71196
-1.46032
-1.13004
-0.725226
-0.256861
0.26522
0.829223
1.42478
2.04023
2.66296
3.28065
3.88174
4.4586
4.99678
5.4879
5.92164
6.29275
6.59277
6.81763
6.96372
7.03304
7.02233
6.93606
6.77575
6.54858
6.26027
5.91896
5.53504
5.12496
4.69458
4.25816
3.82676
3.41401
3.03151
2.69235
2.40612
2.18215
2.02916
1.95371
1.96088
2.05231
2.23025
2.49498
2.84232
3.26195
3.75342
4.30949
4.92069
5.57695
6.2678
6.98069
7.70647
8.43336
9.15116
9.84973
10.5216
11.1596
11.7571
12.3111
12.8161
13.2688
13.6702
14.0252
14.3322
14.5916
14.8099
14.9936
15.1465
15.2703
15.3743
15.4666
15.5502
15.6254
15.7023
15.7863
15.8802
15.987
16.1096
16.2495
16.4093
16.5903
16.7934
17.0215
17.273
17.5516
17.8552
18.1855
18.5413
18.9227
19.3304
19.7626
20.2219
20.7093
21.2234
21.762
22.326
22.9116
23.5204
24.1509
24.8012
25.4707
26.1542
26.849
27.5515
28.2587
28.9671
29.6736
30.3749
31.0683
31.7515
32.4253
33.086
33.728
34.3562
34.9703
35.5724
36.16
36.74
37.3177
37.8948
38.4769
39.0662
39.6675
40.2832
40.9157
41.5678
42.2432
42.9405
43.6629
44.4042
45.1617
45.9303
46.7032
47.4736
48.2362
48.9787
49.6888
50.3579
50.9759
51.5316
52.0123
52.4116
52.722
52.9372
53.054
53.0695
52.9877
52.8081
52.5359
52.1799
51.7531
51.2661
50.7346
50.1754
49.608
49.0504
48.5181
48.0339
47.6158
47.2821
47.0524
46.9356
46.9417
47.0793
47.3542
47.7663
48.315
48.9921
49.7895
50.6926
51.6838
52.7458
53.8619
55.0061
56.1541
57.2822
58.3677
59.3852
60.3147
61.1334
61.8228
62.3664
62.7548
62.9749
63.0189
62.8856
62.5765
62.0938
61.4453
60.6402
59.6911
58.6119
57.4194
56.1312
54.7644
53.3392
51.8752
50.3899
48.9023
47.4254
45.9767
44.566
43.2045
41.899
40.6572
39.4802
38.3712
37.3275
36.3462
35.4227
34.549
33.7193
32.9248
32.1571
31.4041
30.6592
29.9111
29.1534
28.3787
27.579
26.744
25.8718
24.9592
24.0011
22.9949
21.9402
20.8382
19.6873
18.4866
17.2383
15.9435
14.6048
13.2247
11.8047
10.3476
8.85392
7.32495
5.76262
4.16776
2.54198
0.887094
-0.795112
-2.50394
-4.23656
-5.99003
-7.7611
-9.54604
-11.3402
-13.138
-14.9339
-16.7213
-18.4924
-20.237
-21.9482
-23.6165
-25.2329
-26.7902
-28.2778
-29.6849
-31.0057
-32.2342
-33.3628
-34.3879
-35.3043
-36.1076
-36.7981
-37.376
-37.8421
-38.1991
-38.4493
-38.5977
-38.6481
-38.6062
-38.477
-38.2675
-37.9822
-37.6282
-37.2075
-36.7252
-36.1844
-35.5882
-34.9378
-34.2328
-33.476
-32.669
-31.8104
-30.8982
-29.935
-28.9274
-27.8715
-26.7695
-25.6246
-24.442
-23.2272
-21.9883
-20.7343
-19.4785
-18.2301
-16.9999
-15.8049
-14.6622
-13.5848
-12.5866
-11.6848
-10.8931
-10.227
-9.69872
-9.319
-9.09841
-9.04069
-9.15046
-9.42658
-9.86645
-10.4633
-11.212
-12.0969
-13.1048
-14.2161
-15.4161
-16.6778
-17.9769
-19.2905
-20.5945
-21.8638
-23.0739
-24.203
-25.2316
-26.1412
-26.9149
-27.541
-28.008
-28.3134
-28.4558
-28.4369
-28.2617
-27.9403
-27.4876
-26.9162
-26.2435
-25.4898
-24.6758
-23.8241
-22.9586
-22.099
-21.2649
-20.477
-19.7526
-19.1068
-18.5532
-18.0989
-17.7528
-17.5147
-17.3819
-17.3519
-17.4156
-17.567
-17.7963
-18.0879
-18.4242
-18.7926
-19.175
-19.5585
-19.9276
-20.2698
-20.5705
-20.8225
-21.0168
-21.1496
-21.2139
-21.2134
-21.1483
-21.0253
-20.8513
-20.6328
-20.3815
-20.1043
-19.8108
-19.5124
-19.2201
-18.9412
-18.6864
-18.4584
-18.262
-18.0983
-17.9703
-17.8721
-17.8039
-17.7552
-17.721
-17.6889
-17.6495
-17.592
-17.5077
-17.3855
-17.2154
-16.9919
-16.7075
-16.3616
-15.95
-15.4798
-14.9575
-14.3908
-13.7877
-13.1672
-12.5447
-11.9396
-11.3734
-10.8664
-10.4405
-10.1157
-9.91398
-9.85193
-9.94447
-10.2044
-10.6426
-11.262
-12.063
-13.0399
-14.1813
-15.4752
-16.9053
-18.4454
-20.068
-21.7447
-23.4407
-25.1241
-26.7641
-28.3222
-29.7623
-31.0547
-32.171
-33.0861
-33.7831
-34.2422
-34.4514
-34.4072
-34.1099
-33.566
-32.7855
-31.7874
-30.5938
-29.2294
-27.7225
-26.1054
-24.4103
-22.672
-20.9198
-19.1911
-17.5181
-15.9286
-14.4466
-13.0947
-11.8904
-10.8461
-9.97218
-9.27033
-8.74012
-8.37505
-8.17033
-8.1084
-8.17554
-8.35076
-8.61484
-8.94582
-9.3198
-9.71712
-10.1142
-10.4961
-10.8463
-11.1496
-11.3898
-11.5624
-11.6622
-11.6864
-11.6363
-11.5148
-11.3271
-11.082
-10.7887
-10.4609
-10.1109
-9.75346
-9.40871
-9.08408
-8.79269
-8.54458
-8.35326
-8.22275
-8.16053
-8.16869
-8.25043
-8.40274
-8.62445
-8.9083
-9.24638
-9.63154
-10.0549
-10.5054
-10.9736
-11.4474
-11.9134
-12.3633
-12.7862
-13.1745
-13.5255
-13.8294
-14.0816
-14.28
-14.4216
-14.5088
-14.5416
-14.5254
-14.4622
-14.3584
-14.2144
-14.0408
-13.8393
-13.6187
-13.3833
-13.1383
-12.8861
-12.6305
-12.3758
-12.1207
-11.8677
-11.6128
-11.3567
-11.0947
-10.8229
-10.5371
-10.2381
-9.91641
-9.5609
-9.17312
-8.74571
-8.2774
-7.75978
-7.19419
-6.57832
-5.91069
-5.18895
-4.41558
-3.5915
-2.72019
-1.80395
-0.848311
0.139815
1.15487
2.19173
3.24183
4.29452
5.3439
6.38092
7.39813
8.38913
9.3453
10.2589
11.1238
11.9318
12.6794
13.3646
13.9802
14.5215
14.9858
15.3702
15.6726
15.889
16.0191
16.0615
16.0156
15.882
15.6565
15.3344
14.9185
14.4041
13.7936
13.0855
12.2796
11.3748
10.3719
9.27261
8.07671
6.78597
5.4028
3.9322
2.37706
0.7439
-0.961791
-2.73171
-4.55847
-6.43429
-8.34834
-10.2912
-12.251
-14.2234
-16.19
-18.1405
-20.0614
-21.947
-23.7797
-25.5502
-27.2465
-28.861
-30.3823
-31.8007
-33.1108
-34.3083
-35.3871
-36.3458
-37.1803
-37.8909
-38.4759
-38.9326
-39.2687
-39.4853
-39.5913
-39.5918
-39.4968
-39.3122
-39.0506
-38.719
-38.3313
-37.8974
-37.4294
-36.9334
-36.4244
-35.9082
-35.3959
-34.8915
-34.4012
-33.9203
-33.4565
-32.9995
-32.5531
-32.1037
-31.6492
-31.1768
-30.6727
-30.1223
-29.5053
-28.802
-27.9903
-27.0556
-25.9678
-24.7101
-23.2548
-21.5857
-19.6805
-17.5267
-15.1085
-12.4196
-9.45253
-6.20689
-2.68791
1.08975
5.11327
9.35911
13.7997
18.4003
23.1203
27.9066
32.7141
37.4848
42.1601
46.6746
50.9655
54.9667
58.6121
61.8348
64.575
66.7744
68.3793
69.344
69.6278
69.1984
68.035
66.126
63.4708
60.0803
55.9748
51.1862
45.7591
39.7476
33.2163
26.2404
18.8987
11.2788
3.47388
-4.42162
-12.3075
-20.0865
-27.6598
-34.9338
-41.8173
-48.2248
-54.0823
-59.3203
-63.8832
-67.7251
-70.8119
-73.1184
-74.6345
-75.3571
-75.3037
-74.5
-72.9792
-70.7834
-67.9689
-64.5989
-60.7376
-56.4563
-51.8306
-46.9393
-41.8571
-36.659
-31.4189
-26.208
-21.089
-16.1183
-11.3512
-6.83259
-2.60007
1.32112
4.90465
8.13789
11.0127
13.5343
15.7047
17.5379
19.0493
20.2675
21.2087
21.8974
22.3636
22.6377
22.7457
22.7129
22.568
22.3403
22.0467
21.7015
21.3257
20.9299
20.5282
20.125
19.7306
19.3457
18.9762
18.6152
18.2717
17.9428
17.6299
17.3245
17.0334
16.7527
16.4862
16.2332
15.9969
15.7768
15.576
15.3884
15.2249
15.0837
14.9693
14.8826
14.8247
14.7973
14.7973
14.8204
14.867
14.9399
15.0284
15.1314
15.2409
15.3551
15.4657
15.5688
15.6606
15.743
15.8098
15.8619
15.9002
15.9331
15.9607
15.9893
16.0292
16.0932
16.19
16.331
16.532
16.8091
17.1727
17.6338
18.2073
18.9022
19.7298
20.6956
21.8066
23.0642
24.4674
26.0085
27.6847
29.4851
31.3978
33.4043
35.491
37.6375
39.8225
42.0206
44.2126
46.3771
48.4893
50.5212
52.459
54.2844
55.9805
57.533
58.9307
60.164
61.2287
62.1216
62.8447
63.4015
63.7971
64.0384
64.1384
64.1057
63.9584
63.7115
63.3841
62.9919
62.554
62.0898
61.6166
61.1504
60.7096
60.3123
59.9733
59.7052
59.5246
59.4454
59.4802
59.6412
59.9385
60.3845
60.9868
61.7528
62.6903
63.8062
65.1064
66.5971
68.2797
70.159
72.2334
74.5014
76.9623
79.6126
82.4471
85.4538
88.6283
91.9655
95.4479
99.0596
102.788
106.621
110.537
114.515
118.54
122.593
126.656
130.711
134.741
138.727
142.654
146.51
150.28
153.96
157.537
160.998
164.344
167.573
170.68
173.662
176.522
179.26
181.879
184.371
186.747
189.014
191.167
193.204
195.126
196.938
198.63
200.197
201.637
202.955
204.137
205.173
206.062
206.809
207.398
207.824
208.088
208.198
208.146
207.935
207.575
207.081
206.46
205.722
204.892
204
203.061
202.097
201.141
200.23
199.386
198.633
198.004
197.531
197.238
197.147
197.279
197.657
198.285
199.17
200.315
201.721
203.375
205.265
207.366
209.66
212.112
214.684
217.339
220.043
222.744
225.396
227.954
230.381
232.625
234.645
236.399
237.854
238.974
239.738
240.12
240.11
239.696
238.874
237.651
236.04
234.058
231.728
229.078
226.149
222.971
219.585
216.033
212.364
208.621
204.846
201.086
197.386
193.784
190.313
187.009
183.9
181.006
178.344
175.926
173.759
171.843
170.169
168.73
167.51
166.491
165.639
164.935
164.347
163.845
163.392
162.957
162.505
162.003
161.415
160.715
159.874
158.869
157.675
156.277
154.663
152.822
150.753
148.452
145.928
143.181
140.223
137.07
133.748
130.27
126.659
122.942
119.151
115.307
111.446
107.592
103.778
100.029
96.3749
92.8416
89.4597
86.2479
83.2308
80.4282
77.8578
75.5349
73.4733
71.6844
70.1746
68.951
68.0216
67.3841
67.034
66.9703
67.1894
67.6814
68.43
69.4263
70.6568
72.1041
73.7428
75.5578
77.5257
79.6243
81.8225
84.0976
86.4284
88.7795
91.1188
93.4158
95.6452
97.77
99.7561
101.574
103.2
104.598
105.743
106.605
107.163
107.391
107.267
106.774
105.9
104.634
102.967
100.897
98.4229
95.5522
92.2935
88.6628
84.6773
80.3623
75.7415
70.849
65.7179
60.3881
54.8966
49.2879
43.5978
37.878
32.1663
26.5122
20.9516
15.5293
10.2786
5.23513
0.424691
-4.12691
-8.40129
-12.3874
-16.0794
-19.4776
-22.5906
-25.4295
-28.0102
-30.3587
-32.5038
-34.4784
-36.3196
-38.0638
-39.751
-41.423
-43.1192
-44.8784
-46.734
-48.7225
-50.871
-53.2031
-55.7306
-58.4703
-61.4235
-64.5889
-67.9525
-71.5004
-75.198
-79.0241
-82.9408
-86.9078
-90.8746
-94.7966
-98.6191
-102.294
-105.763
-108.981
-111.901
-114.477
-116.664
-118.432
-119.754
-120.605
-120.972
-120.845
-120.228
-119.125
-117.548
-115.52
-113.079
-110.252
-107.076
-103.596
-99.8677
-95.9358
-91.8538
-87.6755
-83.4635
-79.2645
-75.1284
-71.1105
-67.2673
-63.6387
-60.2649
-57.1877
-54.4477
-52.073
-50.0908
-48.5255
-47.4017
-46.7306
-46.5267
-46.7947
-47.541
-48.7631
-50.4575
-52.6171
-55.238
-58.2995
-61.7837
-65.6708
-69.9412
-74.5637
-79.5048
-84.7371
-90.2288
-95.9409
-101.836
-107.874
-114.023
-120.233
-126.465
-132.678
-138.833
-144.891
-150.819
-156.577
-162.144
-167.482
-172.566
-177.376
-181.897
-186.113
-190.02
-193.61
-196.886
-199.847
-202.5
-204.856
-206.928
-208.729
-210.277
-211.588
-212.682
-213.576
-214.285
-214.829
-215.227
-215.491
-215.627
-215.649
-215.564
-215.376
-215.086
-214.696
-214.202
-213.602
-212.887
