-9737.68
-9737.68
-9737.68
-9737.68
-9737.68
-9737.68
-9737.68
-9737.68
-9737.68
-9737.68
-9737.68
-9737.68
-9737.68
-9737.68
-9737.68
-9737.68
-9737.68
-9737.68
-9737.69
-9737.69
-9737.86
-9738
-9738.08
-9738.12
-9738.09
-9737.99
-9737.82
-9737.56
-9737.2
-9736.74
-9736.17
-9735.49
-9734.69
-9733.79
-9732.79
-9731.71
-9730.59
-9729.45
-9728.33
-9727.27
-9726.51
-9725.88
-9725.46
-9725.29
-9725.44
-9725.96
-9726.9
-9728.29
-9730.16
-9732.52
-9735.37
-9738.69
-9742.44
-9746.55
-9750.96
-9755.57
-9760.24
-9764.86
-9769.27
-9773.31
-9776.94
-9779.81
-9781.72
-9782.46
-9781.86
-9779.71
-9775.83
-9770.05
-9762.21
-9752.17
-9739.82
-9725.05
-9707.81
-9688.05
-9665.76
-9640.96
-9613.7
-9584.05
-9552.13
-9518.05
-9482.12
-9444.35
-9404.92
-9364.02
-9321.88
-9278.7
-9234.7
-9190.1
-9145.08
-9099.83
-9054.53
-9009.35
-8964.43
-8919.88
-8875.81
-8832.29
-8789.39
-8747.15
-8705.59
-8664.72
-8624.66
-8585.23
-8546.41
-8508.14
-8470.4
-8433.12
-8396.24
-8359.71
-8323.49
-8287.52
-8251.75
-8216.14
-8180.65
-8145.26
-8109.94
-8074.67
-8039.45
-8004.28
-7969.14
-7934.06
-7899.15
-7864.3
-7829.52
-7794.82
-7760.22
-7725.73
-7691.38
-7657.17
-7623.11
-7589.2
-7555.45
-7521.86
-7488.43
-7455.15
-7422.03
-7389.05
-7356.22
-7323.53
-7290.99
-7258.58
-7226.43
-7194.4
-7162.51
-7130.75
-7099.14
-7067.68
-7036.38
-7005.25
-6974.08
-6943.05
-6912.17
-6881.43
-6850.83
-6820.38
-6790.07
-6759.9
-6729.87
-6699.97
-6670.21
-6640.58
-6611.19
-6581.91
-6552.76
-6523.74
-6494.86
-6466.12
-6437.53
-6409.1
-6380.63
-6352.29
-6324.08
-6296
-6268.05
-6240.23
-6212.54
-6184.98
-6157.54
-6130.22
-6103.02
-6075.94
-6049.08
-6022.32
-5995.68
-5969.15
-5942.75
-5916.48
-5890.35
-5864.36
-5838.34
-5812.43
-5786.65
-5760.99
-5735.45
-5710.02
-5684.72
-5659.53
-5634.45
-5609.49
-5584.63
-5559.88
-5535.33
-5510.87
-5486.51
-5462.26
-5438.13
-5414.1
-5390.21
-5366.44
-5342.64
-5318.95
-5295.36
-5271.89
-5248.53
-5225.28
-5202.13
-5179.09
-5156.16
-5133.33
-5110.6
-5087.98
-5065.53
-5043.18
-5020.93
-4998.78
-4976.73
-4954.8
-4932.98
-4911.29
-4889.57
-4867.95
-4846.44
-4825.03
-4803.72
-4782.51
-4761.41
-4740.4
-4719.49
-4698.67
-4677.94
-4657.3
-4636.82
-4616.43
-4596.12
-4575.89
-4555.75
-4535.71
-4515.77
-4495.94
-4476.07
-4456.28
-4436.59
-4416.98
-4397.45
-4378.02
-4358.67
-4339.4
-4320.21
-4301.12
-4282.1
-4263.17
-4244.39
-4225.68
-4207.06
-4188.52
-4170.08
-4151.73
-4133.49
-4115.35
-4097.19
-4079.13
-4061.15
-4043.27
-4025.48
-4007.78
-3990.17
-3972.64
-3955.2
-3937.84
-3920.56
-3903.37
-3886.3
-3869.31
-3852.39
-3835.54
-3818.77
-3802.08
-3785.47
-3768.95
-3752.4
-3735.92
-3719.51
-3703.17
-3686.9
-3670.7
-3654.57
-3638.51
-3622.51
-3606.58
-3590.72
-3574.92
-3559.24
-3543.62
-3528.07
-3512.58
-3497.17
-3481.83
-3466.57
-3451.39
-3436.2
-3421.07
-3406.02
-3391.04
-3376.13
-3361.3
-3346.53
-3331.84
-3317.22
-3302.66
-3288.17
-3273.74
-3259.43
-3245.18
-3230.99
-3216.87
-3202.81
-3188.83
-3174.92
-3161.08
-3147.22
-3133.43
-3119.7
-3106.04
-3092.43
-3078.9
-3065.42
-3052.01
-3038.65
-3025.36
-3012.12
-2998.95
-2985.87
-2972.85
-2959.89
-2946.99
-2934.15
-2921.38
-2908.67
-2896.04
-2883.39
-2870.8
-2858.28
-2845.82
-2833.42
-2821.08
-2808.81
-2796.59
-2784.43
-2772.32
-2760.27
-2748.28
-2736.37
-2724.52
-2712.72
-2700.96
-2689.26
-2677.61
-2666.02
-2654.49
-2642.94
-2631.44
-2619.98
-2608.58
-2597.22
-2585.91
-2574.65
-2563.43
-2552.27
-2541.14
-2530.07
-2519.04
-2508.09
-2497.19
-2486.34
-2475.53
-2464.77
-2454.07
-2443.42
-2432.84
-2422.24
-2411.7
-2401.21
-2390.77
-2380.38
-2370.05
-2359.77
-2349.53
-2339.35
-2329.22
-2319.13
-2309.09
-2299.14
-2289.23
-2279.36
-2269.54
-2259.77
-2250.05
-2240.38
-2230.77
-2221.15
-2211.57
-2202.05
-2192.57
-2183.14
-2173.76
-2164.42
-2155.14
-2145.9
-2136.7
-2127.54
-2118.44
-2109.4
-2100.41
-2091.45
-2082.54
-2073.66
-2064.83
-2056.05
-2047.31
-2038.56
-2029.84
-2021.16
-2012.51
-2003.9
-1995.32
-1986.76
-1978.24
-1969.74
-1961.26
-1952.81
-1944.38
-1936
-1927.64
-1919.29
-1910.96
-1902.66
-1894.37
-1886.11
-1877.88
-1869.61
-1861.36
-1853.14
-1844.93
-1836.74
-1828.56
-1820.41
-1812.27
-1804.16
-1796.05
-1787.97
-1779.9
-1771.88
-1763.86
-1755.86
-1747.88
-1739.91
-1731.96
-1724.04
-1716.13
-1708.19
-1700.27
-1692.36
-1684.46
-1676.57
-1668.7
-1660.84
-1652.99
-1645.14
-1637.31
-1629.48
-1621.66
-1613.88
-1606.1
-1598.32
-1590.56
-1582.8
-1575.06
-1567.33
-1559.61
-1551.87
-1544.14
-1536.42
-1528.71
-1521.02
-1513.34
-1505.68
-1498.03
-1490.4
-1482.78
-1475.18
-1467.6
-1460.05
-1452.52
-1445
-1437.5
-1430.03
-1422.57
-1415.14
-1407.74
-1400.32
-1392.93
-1385.55
-1378.21
-1370.89
-1363.59
-1356.32
-1349.08
-1341.87
-1334.69
-1327.54
-1320.42
-1313.35
-1306.31
-1299.31
-1292.34
-1285.41
-1278.52
-1271.68
-1264.88
-1258.1
-1251.35
-1244.65
-1237.99
-1231.38
-1224.81
-1218.29
-1211.81
-1205.37
-1198.98
-1192.64
-1186.33
-1180.09
-1173.89
-1167.72
-1161.6
-1155.52
-1149.48
-1143.49
-1137.54
-1131.59
-1125.69
-1119.82
-1113.99
-1108.2
-1102.45
-1096.73
-1091.05
-1085.41
-1079.8
-1074.22
-1068.68
-1063.19
-1057.73
-1052.31
-1046.92
-1041.57
-1036.26
-1030.98
-1025.74
-1020.51
-1015.31
-1010.15
-1005.03
-999.937
-994.882
-989.862
-984.876
-979.925
-975.007
-970.123
-965.272
-960.47
-955.698
-950.959
-946.252
-941.579
-936.941
-932.337
-927.77
-923.211
-918.683
-914.186
-909.722
-905.289
-900.887
-896.514
-892.17
-887.853
-883.563
-879.299
-875.061
-870.861
-866.682
-862.524
-858.388
-854.273
-850.179
-846.107
-842.057
-838
-833.96
-829.937
-825.929
-821.937
-817.961
-813.998
-810.051
-806.116
-802.196
-798.291
-794.4
-790.537
-786.687
-782.852
-779.033
-775.233
-771.452
-767.69
-763.951
-760.21
-756.49
-752.79
-749.111
-745.453
-741.816
-738.201
-734.608
-731.034
-727.481
-723.949
-720.437
-716.956
-713.493
-710.048
-706.621
-703.213
-699.824
-696.455
-693.106
-689.754
-686.419
-683.1
-679.797
-676.51
-673.239
-669.984
-666.745
-663.52
-660.31
-657.114
-653.933
-650.779
-647.638
-644.513
-641.404
-638.31
-635.235
-632.179
-629.143
-626.107
-623.088
-620.088
-617.106
-614.143
-611.199
-608.276
-605.371
-602.486
-599.62
-596.774
-593.948
-591.151
-588.373
-585.615
-582.877
-580.159
-577.464
-574.79
-572.14
-569.493
-566.867
-564.26
-561.674
-559.107
-556.559
-554.03
-551.519
-549.025
-546.548
-544.086
-541.641
-539.22
-536.812
-534.417
-532.036
-529.668
-527.314
-524.972
-522.645
-520.313
-517.991
-515.681
-513.38
-511.088
-508.806
-506.533
-504.268
-502.012
-499.763
-497.522
-495.289
-493.072
-490.861
-488.658
-486.463
-484.278
-482.102
-479.937
-477.784
-475.627
-473.481
-471.345
-469.22
-467.107
-465.006
-462.917
-460.84
-458.774
-456.721
-454.681
-452.654
-450.647
-448.652
-446.669
-444.698
-442.74
-440.795
-438.863
-436.943
-435.022
-433.111
-431.21
-429.317
-427.434
-425.558
-423.691
-421.829
-419.973
-418.122
-416.276
-414.433
-412.601
-410.772
-408.946
-407.123
-405.304
-403.49
-401.681
-399.879
-398.07
-396.267
-394.47
-392.68
-390.897
-389.122
-387.357
-385.6
-383.853
-382.116
-380.39
-378.674
-376.976
-375.288
-373.61
-371.943
-370.288
-368.645
-367.013
-365.392
-363.772
-362.16
-360.557
-358.961
-357.374
-355.792
-354.216
-352.645
-351.079
-349.516
-347.957
-346.401
-344.853
-343.307
-341.762
-340.22
-338.681
-337.145
-335.614
-334.087
-332.555
-331.027
-329.505
-327.988
-326.478
-324.976
-323.481
-321.994
-320.516
-319.048
-317.589
-316.141
-314.71
-313.29
-311.881
-310.484
-309.101
-307.731
-306.376
-305.035
-303.698
-302.374
-301.063
-299.765
-298.48
-297.207
-295.945
-294.695
-293.454
-292.224
-291.003
-289.791
-288.591
-287.399
-286.214
-285.036
-283.864
-282.698
-281.54
-280.389
-279.236
-278.089
-276.947
-275.812
-274.682
-273.559
-272.442
-271.333
-270.23
-269.136
-268.048
-266.97
-265.904
-264.847
-263.798
-262.759
-261.73
-260.712
-259.703
-258.705
-257.709
-256.721
-255.742
-254.77
-253.806
-252.848
-251.896
-250.949
-250.005
-249.065
-248.127
-247.191
-246.26
-245.328
-244.397
-243.465
-242.531
-241.598
-240.664
-239.73
-238.789
-237.848
-236.908
-235.968
-235.029
-234.092
-233.159
-232.228
-231.301
-230.379
-229.463
-228.553
-227.653
-226.76
-225.876
-225
-224.133
-223.276
-222.429
-221.593
-220.761
-219.939
-219.127
-218.326
-217.534
-216.753
-215.981
-215.218
-214.464
-213.719
-212.983
-212.254
-211.537
-210.826
-210.122
-209.425
-208.734
-208.05
-207.371
-206.698
-206.024
-205.353
-204.685
-204.02
-203.357
-202.695
-202.032
-201.37
-200.706
-200.042
-199.375
-198.706
-198.036
-197.364
-196.688
-196.008
-195.327
-194.642
-193.956
-193.268
-192.574
-191.88
-191.185
-190.492
-189.802
-189.115
-188.432
-187.754
-187.084
-186.421
-185.766
-185.12
-184.487
-183.865
-183.254
-182.654
-182.066
-181.491
-180.928
-180.378
-179.835
-179.302
-178.781
-178.269
-177.767
-177.272
-176.784
-176.302
-175.825
-175.352
-174.882
-174.413
-173.948
-173.482
-173.016
-172.548
-172.078
-171.606
-171.132
-170.655
-170.171
-169.683
-169.193
-168.699
-168.203
-167.704
-167.203
-166.701
-166.196
-165.691
-165.185
-164.68
-164.177
-163.676
-163.175
-162.677
-162.181
-161.688
-161.2
-160.715
-160.23
-159.75
-159.273
-158.801
-158.332
-157.868
-157.409
-156.954
-156.503
-156.055
-155.611
-155.171
-154.737
-154.305
-153.876
-153.45
-153.028
-152.609
-152.193
-151.781
-151.367
-150.957
-150.548
-150.142
-149.74
-149.34
-148.942
-148.547
-148.155
-147.766
-147.38
-146.996
-146.616
-146.239
-145.864
-145.492
-145.123
-144.756
-144.392
-144.031
-143.668
-143.308
-142.949
-142.592
-142.237
-141.883
-141.53
-141.179
-140.828
-140.479
-140.13
-139.783
-139.438
-139.094
-138.752
-138.411
-138.071
-137.734
-137.399
-137.066
-136.734
-136.405
-136.077
-135.753
-135.433
-135.116
-134.803
-134.494
-134.189
-133.887
-133.59
-133.297
-133.009
-132.725
-132.444
-132.167
-131.894
-131.624
-131.358
-131.096
-130.834
-130.575
-130.319
-130.065
-129.814
-129.565
-129.318
-129.073
-128.83
-128.589
-128.35
-128.112
-127.878
-127.644
-127.413
-127.182
-126.952
-126.723
-126.495
-126.268
-126.039
-125.81
-125.582
-125.354
-125.125
-124.895
-124.664
-124.432
-124.198
-123.962
-123.724
-123.484
-123.244
-123.002
-122.757
-122.512
-122.264
-122.016
-121.767
-121.517
-121.265
-121.013
-120.762
-120.513
-120.265
-120.02
-119.778
-119.539
-119.304
-119.073
-118.846
-118.625
-118.41
-118.199
-117.995
-117.795
-117.601
-117.411
-117.226
-117.046
-116.867
-116.691
-116.519
-116.348
-116.179
-116.009
-115.84
-115.671
-115.5
-115.327
-115.152
-114.974
-114.795
-114.612
-114.425
-114.235
-114.041
-113.843
-113.643
-113.441
-113.234
-113.026
-112.816
-112.606
-112.396
-112.187
-111.979
-111.774
-111.571
-111.372
-111.177
-110.987
-110.802
-110.623
-110.45
-110.283
-110.123
-109.968
-109.82
-109.678
-109.54
-109.407
-109.278
-109.154
-109.033
-108.916
-108.8
-108.686
-108.573
-108.46
-108.348
-108.234
-108.12
-108.003
-107.884
-107.763
-107.639
-107.513
-107.385
-107.253
-107.119
-106.983
-106.845
-106.706
-106.567
-106.428
-106.29
-106.153
-106.019
-105.888
-105.759
-105.634
-105.515
-105.401
-105.292
-105.189
-105.091
-104.999
-104.914
-104.834
-104.758
-104.687
-104.621
-104.558
-104.499
-104.443
-104.388
-104.335
-104.282
-104.228
-104.173
-104.115
-104.055
-103.992
-103.923
-103.85
-103.771
-103.687
-103.599
-103.504
-103.402
-103.293
-103.178
-103.058
-102.933
-102.803
-102.668
-102.529
-102.387
-102.241
-102.093
-101.941
-101.788
-101.633
-101.476
-101.316
-101.153
-100.988
-100.82
-100.648
-100.47
-100.286
-100.094
-99.8949
-99.6861
-99.4659
-99.2336
-98.9867
-98.7238
-98.4429
-98.1421
-97.8197
-97.4761
-97.1076
-96.7129
-96.2904
-95.8397
-95.3589
-94.8475
-94.3044
-93.7282
-93.1192
-92.4779
-91.8037
-91.0977
-90.3598
-89.5908
-88.7912
-87.9625
-87.1053
-86.2214
-85.3115
-84.3782
-83.4219
-82.4447
-81.4476
-80.4324
-79.4001
-78.3525
-77.2906
-76.215
-75.1273
-74.0287
-72.9197
-71.8012
-70.6736
-69.5374
-68.3927
-67.2403
-66.0798
-64.9118
-63.7358
-62.5526
-61.3613
-60.1623
-58.9552
-57.7397
-56.5162
-55.2849
-54.0459
-52.7989
-51.5447
-50.284
-49.0172
-47.7443
-46.4667
-45.1858
-43.9019
-42.6164
-41.3298
-40.0429
-38.7573
-37.4745
-36.1953
-34.9214
-33.6534
-32.3923
-31.1395
-29.8968
-28.6647
-27.4431
-26.234
-25.0378
-23.8557
-22.6888
-21.5376
-20.4023
-19.2837
-18.182
-17.0981
-16.0323
-14.9851
-13.9572
-12.9482
-11.958
-10.9871
-10.0356
-9.10374
-8.19101
-7.29779
-6.42234
-5.56617
-4.72916
-3.91094
-3.111
-2.3292
-1.56431
-0.816675
-0.0854514
0.629392
1.3284
2.01199
2.68096
3.33561
3.97683
4.60449
5.21907
5.82072
6.41053
6.98779
7.55377
8.10754
8.64967
9.17946
9.69742
10.2027
10.6953
11.1747
11.641
12.0935
12.5325
12.9569
13.3669
13.7619
14.1419
14.5064
14.8557
15.1896
15.5085
15.8121
16.1023
16.3781
16.6409
16.8904
17.1281
17.3541
17.5692
17.7742
17.9705
18.1586
18.3401
18.5154
18.6849
18.8499
19.0114
19.1698
19.3262
19.4806
19.634
19.7861
19.9382
20.0895
20.2405
20.3907
20.5403
20.6888
20.8364
20.9826
21.1276
21.2705
21.4111
21.5488
21.6835
21.8147
21.9428
22.0667
22.1863
22.3016
22.4123
22.5184
22.6209
22.719
22.8133
22.9035
22.9899
23.0727
23.1527
23.2301
23.3056
23.3795
23.4521
23.5238
23.5946
23.6653
23.737
23.8093
23.8829
23.9574
24.0326
24.1086
24.1854
24.2627
24.3404
24.4177
24.4944
24.5695
24.6423
24.7122
24.7789
24.8411
24.8979
24.9486
24.9925
25.029
25.0572
25.0769
25.0879
25.0899
25.0823
25.0656
25.0411
25.008
24.9666
24.9177
24.8627
24.8018
24.7361
24.6666
24.5938
24.5189
24.4434
24.3679
24.2931
24.22
24.1491
24.0811
24.0164
23.9552
23.8983
23.8448
23.7951
23.7484
23.7043
23.6621
23.6215
23.5816
23.5411
23.4997
23.4568
23.4116
23.3632
23.3113
23.2545
23.1934
23.1283
23.0583
22.9838
22.9045
22.82
22.7313
22.6396
22.5448
22.4476
22.3484
22.248
22.147
22.0457
21.9449
21.8456
21.7476
21.651
21.5562
21.4634
21.3725
21.2839
21.1972
21.1119
21.028
20.9454
20.8637
20.7833
20.7032
20.6233
20.5434
20.4632
20.3827
20.3018
20.2205
20.1394
20.0583
19.9772
19.897
19.8179
19.7405
19.6656
19.5932
19.5236
19.4573
19.3944
19.3353
19.2803
19.2293
19.1816
19.1377
19.0983
19.0623
19.0297
18.9997
18.9715
18.945
18.9196
18.8947
18.8699
18.8445
18.8183
18.7905
18.7607
18.7286
18.6938
18.6564
18.6169
18.5747
18.5297
18.4822
18.4319
18.3798
18.3263
18.2716
18.2163
18.1607
18.1051
18.0501
17.9953
17.9418
17.8903
17.8405
17.7923
17.7461
17.7022
17.6605
17.6214
17.5842
17.5495
17.5166
17.4847
17.454
17.4247
17.396
17.3672
17.3383
17.309
17.2789
17.2473
17.2141
17.1789
17.1413
17.1005
17.0568
17.0098
16.9594
16.9055
16.848
16.7873
16.723
16.655
16.5835
16.5081
16.4295
16.3481
16.2641
16.178
16.0899
16
15.9091
15.8181
15.7268
15.6361
15.5459
15.4563
15.368
15.2823
15.1986
15.1165
15.0366
14.959
14.8836
14.8107
14.7399
14.6707
14.6028
14.5363
14.4705
14.4054
14.3402
14.274
14.2068
14.1379
14.0671
13.9941
13.9184
13.8399
13.7583
13.6733
13.5849
13.4941
13.4
13.3034
13.2038
13.1014
12.9965
12.889
12.7796
12.6684
12.5558
12.4416
12.3265
12.2107
12.0939
11.9768
11.8587
11.7402
11.6205
11.4992
11.3763
11.2509
11.1233
10.9932
10.8604
10.7243
10.5848
10.4424
10.2963
10.1464
9.99252
9.83417
9.67225
9.50769
9.34009
9.16966
8.99711
8.82314
8.64811
8.47256
8.29705
8.12216
7.94847
7.77671
7.60725
7.44044
7.27662
7.11594
6.95868
6.80509
6.65502
6.50809
6.36432
6.2236
6.08537
5.94946
5.81513
5.68211
5.54976
5.41734
5.28457
5.15164
5.01745
4.88134
4.74337
4.60304
4.46043
4.31559
4.16835
4.01874
3.86704
3.71343
3.55809
3.40109
3.24309
3.08466
2.92591
2.76691
2.60829
2.45037
2.29336
2.1381
1.98412
1.83167
1.68063
1.53101
1.38276
1.23538
1.08893
0.943248
0.797838
0.652542
0.506715
0.359923
0.211807
0.0615296
-0.0907986
-0.245053
-0.401879
-0.561906
-0.724846
-0.890861
-1.0598
-1.23086
-1.40435
-1.5804
-1.75812
-1.9367
-2.11603
-2.29568
-2.47501
-2.65343
-2.83036
-3.00506
-3.17725
-3.34652
-3.51257
-3.67565
-3.83504
-3.99013
-4.14145
-4.28919
-4.43348
-4.5745
-4.71275
-4.84863
-4.98263
-5.11512
-5.24675
-5.37817
-5.50989
-5.6429
-5.77726
-5.91348
-6.05191
-6.19238
-6.3356
-6.48174
-6.63086
-6.7827
-6.93741
-7.09548
-7.25624
-7.4194
-7.58484
-7.75231
-7.92161
-8.09262
-8.26497
-8.43806
-8.61209
-8.78712
-8.96288
-9.13913
-9.31606
-9.49396
-9.67268
-9.85257
-10.0335
-10.2151
-10.3979
-10.5824
-10.7683
-10.9556
-11.1444
-11.3348
-11.5268
-11.7205
-11.9156
-12.1116
-12.3085
-12.5057
-12.703
-12.9002
-13.0967
-13.2918
-13.4852
-13.6766
-13.8654
-14.0514
-14.2341
-14.4132
-14.5886
-14.7608
-14.9291
-15.0932
-15.2535
-15.4101
-15.5632
-15.7132
-15.8603
-16.0048
-16.1471
-16.2874
-16.4265
-16.5649
-16.7029
-16.8405
-16.9784
-17.1168
-17.2561
-17.3962
-17.5374
-17.6796
-17.8233
-17.9688
-18.1155
-18.2636
-18.4129
-18.5638
-18.7156
-18.8679
-19.0208
-19.1738
-19.3269
-19.4802
-19.6333
-19.786
-19.9382
-20.0897
-20.2405
-20.3903
-20.5392
-20.6869
-20.8335
-20.979
-21.1233
-21.2666
-21.4088
-21.5498
-21.6899
-21.8294
-21.9682
-22.1059
-22.2432
-22.3805
-22.5177
-22.6548
-22.7921
-22.9298
-23.0679
-23.2067
-23.3462
-23.4869
-23.6287
-23.7715
-23.9155
-24.0608
-24.2073
-24.3547
-24.5035
-24.6535
-24.8048
-24.9574
-25.111
-25.2656
-25.421
-25.5773
-25.7344
-25.8919
-26.0502
-26.2092
-26.369
-26.5299
-26.6916
-26.854
-27.0172
-27.1807
-27.3452
-27.5108
-27.6776
-27.846
-28.0158
-28.1874
-28.3607
-28.5352
-28.7113
-28.8893
-29.0688
-29.2496
-29.4317
-29.615
-29.7993
-29.9842
-30.1697
-30.3554
-30.5411
-30.7262
-30.9107
-31.0951
-31.2784
-31.46
-31.64
-31.8184
-31.995
-32.1695
-32.3419
-32.5122
-32.6805
-32.8466
-33.0107
-33.1733
-33.3341
-33.4932
-33.6511
-33.8077
-33.9635
-34.1187
-34.2734
-34.4281
-34.5827
-34.7372
-34.8918
-35.0471
-35.2028
-35.3589
-35.5156
-35.6732
-35.8314
-35.9904
-36.1498
-36.3095
-36.4695
-36.6298
-36.7901
-36.9503
-37.1102
-37.2706
-37.4305
-37.5898
-37.7483
-37.907
-38.0649
-38.2219
-38.3778
-38.5331
-38.6872
-38.8404
-38.9924
-39.1437
-39.2939
-39.4437
-39.5924
-39.7402
-39.8867
-40.0322
-40.1765
-40.32
-40.4621
-40.6034
-40.7429
-40.8805
-41.0158
-41.1494
-41.2802
-41.4082
-41.5328
-41.6544
-41.7716
-41.8845
-41.9917
-42.0934
-42.1881
-42.2756
-42.3546
-42.4249
-42.4851
-42.5348
-42.5724
-42.5974
-42.6084
-42.6053
-42.5861
-42.5505
-42.4968
-42.4245
-42.3321
-42.2195
-42.0851
-41.9288
-41.7491
-41.5455
-41.3169
-41.0628
-40.7823
-40.4757
-40.1417
-39.7802
-39.3905
-38.9732
-38.527
-38.052
-37.5477
-37.0143
-36.4514
-35.86
-35.2394
-34.5899
-33.9114
-33.2043
-32.4685
-31.7049
-30.9132
-30.0945
-29.2486
-28.3761
-27.4775
-26.5539
-25.6056
-24.6338
-23.6387
-22.6213
-21.5823
-20.5229
-19.4437
-18.3463
-17.2314
-16.0996
-14.9525
-13.7914
-12.6174
-11.4325
-10.2372
-9.03312
-7.82116
-6.60289
-5.37937
-4.15219
-2.92232
-1.69112
-0.459468
0.771386
2.0003
3.22614
4.44803
5.6649
6.87611
8.08066
9.27802
10.4675
11.6486
12.8207
13.9834
15.136
16.2783
17.4102
18.5311
19.6407
20.7387
21.8246
22.8985
23.9599
25.0087
26.0444
27.0669
28.077
29.0734
30.0559
31.0241
31.9781
32.9172
33.8421
34.7516
35.6453
36.5231
37.3847
38.2298
39.0582
39.8694
40.6637
41.4403
42.1995
42.9407
43.664
44.3689
45.0558
45.7242
46.3748
47.0069
47.6209
48.2166
48.7948
49.3551
49.898
50.4236
50.9328
51.4253
51.9021
52.3631
52.8091
53.2402
53.6572
54.0599
54.4494
54.8253
55.1887
55.5393
55.8777
56.2037
56.5179
56.8202
57.1116
57.3915
57.6604
57.9178
58.1645
58.3997
58.6243
58.8377
59.0408
59.2331
59.4145
59.5854
59.7464
59.8972
60.0386
60.1706
60.2941
60.4092
60.5171
60.6177
60.7118
60.7999
60.8832
60.9618
61.0365
61.1081
61.1779
61.2459
61.3133
61.3802
61.4477
61.5157
61.5846
61.6548
61.7269
61.8007
61.8771
61.9551
62.0351
62.1165
62.1993
62.283
62.3677
62.4523
62.5367
62.6203
62.7027
62.7832
62.8622
62.9384
63.0119
63.0819
63.1485
63.2112
63.2701
63.3247
63.3759
63.4229
63.4655
63.5042
63.5396
63.5714
63.6006
63.6267
63.6501
63.6711
63.69
63.7069
63.7223
63.736
63.7478
63.7581
63.7667
63.7736
63.7795
63.7835
63.7856
63.7853
63.7826
63.777
63.7688
63.7572
63.7412
63.7209
63.6965
63.6672
63.6326
63.5924
63.5461
63.4936
63.4354
63.3706
63.2989
63.2202
63.1346
63.0416
62.9411
62.8332
62.7182
62.5958
62.4656
62.3279
62.1829
62.0307
61.8719
61.7063
61.5347
61.3568
61.173
60.9836
60.7891
60.5902
60.3878
60.182
59.9735
59.7628
59.5506
59.3373
59.1236
58.9098
58.6967
58.4845
58.2731
58.0636
57.8563
57.6512
57.449
57.2492
57.052
56.857
56.6638
56.4725
56.2825
56.0937
55.9056
55.7178
55.53
55.3417
55.1527
54.9627
54.7718
54.5794
54.3854
54.1898
53.9926
53.7941
53.5944
53.3939
53.1933
52.9929
52.7932
52.5948
52.3988
52.2053
52.0144
51.8273
51.6447
51.4669
51.294
51.1265
50.9645
50.8081
50.6576
50.5126
50.3724
50.2372
50.1065
49.9799
49.857
49.7372
49.6198
49.5043
49.3905
49.2775
49.1641
49.0505
48.9366
48.8218
48.7062
48.5895
48.4712
48.3518
48.2315
48.1102
47.9882
47.8657
47.7424
47.6192
47.4961
47.3733
47.2506
47.1286
47.0075
46.8873
46.768
46.6496
46.5316
46.4143
46.2981
46.1824
46.0671
45.9519
45.8362
45.7204
45.6046
45.4885
45.3722
45.2557
45.139
45.0224
44.9064
44.7911
44.6765
44.5633
44.4524
44.3436
44.2372
44.1337
44.033
43.9357
43.8419
43.7518
43.6655
43.5828
43.5037
43.4279
43.3546
43.2836
43.2147
43.147
43.0804
43.0136
42.9457
42.876
42.8036
42.7281
42.649
42.5654
42.4773
42.3837
42.2836
42.1774
42.0648
41.9458
41.8208
41.6896
41.5526
41.4101
41.2625
41.1106
40.9555
40.7976
40.6374
40.4757
40.3128
40.1499
39.9879
39.827
39.6679
39.511
39.3566
39.2049
39.0567
38.9114
38.7687
38.6289
38.492
38.3573
38.2241
38.092
37.9605
37.829
37.6971
37.5638
37.4287
37.291
37.15
37.0053
36.8562
36.7025
36.5437
36.3796
36.2104
36.0356
35.8549
35.6686
35.477
35.2801
35.0786
34.8724
34.6617
34.4472
34.2297
34.0092
33.7868
33.5622
33.3356
33.1078
32.879
32.6495
32.4199
32.19
31.9605
31.7312
31.502
31.2732
31.0446
30.8165
30.5893
30.3626
30.1359
29.9098
29.6842
29.4591
29.2351
29.0118
28.7889
28.5669
28.3458
28.1259
27.9071
27.6897
27.4737
27.2592
27.0467
26.8358
26.6264
26.4188
26.2126
26.0081
25.8056
25.6047
25.405
25.2063
25.0085
24.8112
24.6141
24.4169
24.2192
24.0207
23.8213
23.6205
23.4176
23.2126
23.0054
22.7956
22.5833
22.3682
22.1501
21.9291
21.7051
21.4782
21.2483
21.0156
20.7804
20.5428
20.303
20.0613
19.8181
19.5734
19.3277
19.081
18.8334
18.5854
18.3372
18.0888
17.8404
17.5921
17.344
17.0962
16.8487
16.6017
16.3546
16.1079
15.8615
15.6154
15.3694
15.1236
14.8782
14.6331
14.3879
14.1429
13.8982
13.6539
13.4096
13.1658
12.9224
12.6798
12.438
12.1973
11.9579
11.7198
11.4833
11.2488
11.0168
10.787
10.5594
10.3346
10.1131
9.89461
9.67901
9.46702
9.25895
9.05478
8.85489
8.65915
8.46781
8.28077
8.09785
7.91931
7.74489
7.57474
7.4091
7.24738
7.08905
6.93419
6.78266
6.63393
6.48744
6.34294
6.19994
6.05796
5.91629
5.77438
5.63235
5.48901
5.34327
5.19509
5.04389
4.88912
4.73033
4.5671
4.39919
4.22617
4.04776
3.86392
3.6745
3.47955
3.27929
3.07387
2.86326
2.64798
2.42797
2.20424
1.97766
1.74841
1.51726
1.28462
1.05112
0.817355
0.583724
0.351018
0.119988
-0.109351
-0.336897
-0.562028
-0.784333
-1.00384
-1.22051
-1.43453
-1.64674
-1.8567
-2.06449
-2.27067
-2.47598
-2.6805
-2.88386
-3.0874
-3.29222
-3.49803
-3.70477
-3.91331
-4.12404
-4.33702
-4.55247
-4.77044
-4.99074
-5.2134
-5.43847
-5.66559
-5.89419
-6.12425
-6.3554
-6.58718
-6.81881
-7.05024
-7.28145
-7.51171
-7.74077
-7.96808
-8.19285
-8.41526
-8.63521
-8.85243
-9.06688
-9.27845
-9.48697
-9.69256
-9.89522
-10.0951
-10.2922
-10.4868
-10.6794
-10.87
-11.0589
-11.2461
-11.4321
-11.617
-11.8005
-11.9834
-12.1658
-12.3479
-12.5298
-12.7119
-12.8945
-13.0776
-13.2617
-13.4469
-13.633
-13.8206
-14.0098
-14.2011
-14.3951
-14.5917
-14.7908
-14.993
-15.1992
-15.4091
-15.6223
-15.8394
-16.0609
-16.2865
-16.5161
-16.75
-16.9878
-17.2296
-17.4748
-17.7231
-17.9742
-18.2276
-18.4833
-18.7403
-18.9977
-19.255
-19.5122
-19.768
-20.0216
-20.2727
-20.5201
-20.7641
-21.0045
-21.2406
-21.472
-21.6989
-21.9205
-22.1375
-22.3501
-22.5586
-22.7635
-22.9652
-23.164
-23.3608
-23.5561
-23.7507
-23.9459
-24.1418
-24.339
-24.5383
-24.7401
-24.9451
-25.1535
-25.3659
-25.5826
-25.8036
-26.0287
-26.2578
-26.4907
-26.7272
-26.9667
-27.2087
-27.4536
-27.7
-27.9471
-28.1943
-28.4408
-28.6864
-28.9309
-29.1737
-29.4147
-29.6531
-29.8889
-30.122
-30.3527
-30.5807
-30.8067
-31.0307
-31.2526
-31.4731
-31.6928
-31.912
-32.1314
-32.3513
-32.5727
-32.7956
-33.0207
-33.248
-33.4783
-33.7114
-33.948
-34.1877
-34.4304
-34.6762
-34.9257
-35.1779
-35.4331
-35.6903
-35.9491
-36.2089
-36.47
-36.7309
-36.9913
-37.2504
-37.5083
-37.7634
-38.0155
-38.2634
-38.5067
-38.7445
-38.9768
-39.2024
-39.4212
-39.6318
-39.834
-40.0269
-40.2103
-40.3831
-40.5461
-40.6976
-40.8377
-40.965
-41.0794
-41.1802
-41.2671
-41.3392
-41.3962
-41.4373
-41.4634
-41.4723
-41.4637
-41.4368
-41.3917
-41.3271
-41.2431
-41.1382
-41.0118
-40.8632
-40.6923
-40.4975
-40.2788
-40.0349
-39.766
-39.4706
-39.1486
-38.7989
-38.4211
-38.0145
-37.5792
-37.1144
-36.6201
-36.0958
-35.5418
-34.9579
-34.3446
-33.7018
-33.0303
-32.3303
-31.6035
-30.8496
-30.07
-29.2652
-28.4366
-27.5851
-26.7121
-25.8186
-24.9065
-23.9764
-23.0297
-22.0674
-21.0911
-20.1016
-19.1002
-18.0878
-17.0653
-16.0335
-14.9937
-13.9462
-12.8923
-11.832
-10.7661
-9.69502
-8.61967
-7.54022
-6.45756
-5.37209
-4.28485
-3.19614
-2.10667
-1.01721
0.0713492
1.15824
2.24247
3.32306
4.39837
5.46785
6.53027
7.58456
8.63028
9.66565
10.689
11.7
12.6975
13.681
14.6497
15.6028
16.5403
17.4613
18.3652
19.2523
20.1227
20.9764
21.8141
22.6358
23.4423
24.234
25.0117
25.776
26.528
27.2681
27.9971
28.7157
29.4255
30.126
30.8187
31.5031
32.1797
32.8485
33.5101
34.164
34.8099
35.4478
36.0781
36.6994
37.3114
37.9131
38.5036
39.0823
39.6491
40.2028
40.7431
41.2692
41.7806
42.2768
42.758
43.2234
43.674
44.1089
44.5292
44.9345
45.3254
45.7021
46.066
46.417
46.7558
47.0833
47.4013
47.7097
48.0092
48.3006
48.5852
48.8631
49.1353
49.402
49.6636
49.9205
50.1733
50.4219
50.667
50.9081
51.1463
51.3808
51.6118
51.8391
52.063
52.283
52.4997
52.7125
52.9216
53.1271
53.3288
53.5269
53.7223
53.9142
54.1028
54.2882
54.4711
54.6512
54.8293
55.0049
55.1779
55.349
55.5191
55.6876
55.8551
56.0216
56.1879
56.3538
56.5195
56.6854
56.8514
57.0181
57.1865
57.3563
57.5283
57.7024
57.8791
58.0585
58.2412
58.4273
58.6173
58.811
59.0085
59.2099
59.4154
59.6247
59.8376
60.0538
60.2731
60.4946
60.7178
60.9417
61.1654
61.388
61.6082
61.8251
62.0376
62.2444
62.4449
62.6373
62.8214
62.9954
63.1588
63.3105
63.4498
63.5762
63.6895
63.7894
63.8764
63.9502
64.0111
64.0598
64.097
64.1234
64.1402
64.148
64.148
64.1413
64.1294
64.1127
64.092
64.0684
64.0431
64.0166
63.9899
63.963
63.936
63.9096
63.884
63.8588
63.8335
63.8077
63.7814
63.7534
63.7241
63.6916
63.6546
63.6129
63.5661
63.5131
63.4534
63.3859
63.3101
63.2257
63.1321
63.0291
62.9167
62.7948
62.6632
62.5222
62.3717
62.2125
62.0457
61.8713
61.6903
61.503
61.3107
61.1137
60.9131
60.7094
60.5032
60.2952
60.0862
59.8767
59.6671
59.4579
59.2496
59.0423
58.8359
58.6307
58.4268
58.2239
58.0219
57.8207
57.6205
57.4206
57.2209
57.0212
56.8212
56.6208
56.4197
56.2177
56.0152
55.8118
55.6077
55.403
55.1977
54.9921
54.787
54.5822
54.3776
54.1738
53.9713
53.7704
53.5716
53.3751
53.1815
52.9907
52.8029
52.6185
52.4377
52.2605
52.0867
51.9166
51.7508
51.5886
51.4298
51.2745
51.1225
50.9738
50.8285
50.6862
50.5463
50.4092
50.2744
50.142
50.0115
49.8834
49.7577
49.634
49.5125
49.3931
49.2758
49.1606
49.047
48.9354
48.8257
48.7179
48.6118
48.5076
48.4049
48.3039
48.2041
48.1057
48.0088
47.9131
47.8186
47.7249
47.6318
47.5394
47.4478
47.3568
47.2667
47.1774
47.0889
47.0012
46.9142
46.8282
46.7434
46.6598
46.5774
46.4962
46.416
46.3371
46.2604
46.1848
46.1096
46.0352
45.9611
45.8871
45.8128
45.7378
45.6611
45.5825
45.5019
45.4184
45.3315
45.2406
45.1456
45.0457
44.9404
44.8297
44.7134
44.5915
44.4637
44.3306
44.1923
44.0491
43.9014
43.7498
43.5954
43.4385
43.28
43.1204
42.961
42.8019
42.6436
42.487
42.3326
42.1811
42.0333
41.8889
41.7479
41.6105
41.4766
41.3459
41.2178
41.0921
40.9691
40.8471
40.7252
40.603
40.4796
40.3542
40.2263
40.095
39.9597
39.8197
39.6743
39.5233
39.3665
39.2035
39.0342
38.8585
38.6766
38.4886
38.2948
38.0956
37.8918
37.6835
37.4716
37.2565
37.0386
36.8186
36.5968
36.3739
36.1509
35.9277
35.7046
35.4819
35.2601
35.0392
34.8191
34.5999
34.3818
34.1643
33.9471
33.73
33.5126
33.2948
33.0763
32.8567
32.6358
32.413
32.1884
31.9614
31.7319
31.4995
31.2638
31.025
30.7836
30.5389
30.2912
30.0404
29.7869
29.5307
29.2721
29.0111
28.748
28.4831
28.2168
27.9493
27.6811
27.4121
27.1417
26.8709
26.6005
26.3301
26.0597
25.7893
25.5193
25.2494
24.9798
24.71
24.4397
24.1691
23.8982
23.6266
23.3541
23.0803
22.8051
22.5279
22.2481
21.9656
21.6809
21.3929
21.1014
20.8059
20.5056
20.2008
19.8908
19.5759
19.2561
18.9309
18.6002
18.2641
17.9219
17.5745
17.2222
16.8652
16.5042
16.1391
15.7705
15.3989
15.025
14.6494
14.2734
13.8974
13.5222
13.1483
12.7761
12.4068
12.0406
11.6785
11.3208
10.9682
10.6218
10.2811
9.94588
9.61651
9.29354
8.97626
8.66431
8.35738
8.05499
7.75679
7.46155
7.16907
6.87913
6.59058
6.30254
6.01448
5.72571
5.43559
5.14363
4.84933
4.55239
4.25233
3.949
3.64207
3.33159
3.0175
2.69989
2.37904
2.05564
1.72973
1.40148
1.07162
0.741036
0.409843
0.0782063
-0.252888
-0.582727
-0.911045
-1.23733
-1.56116
-1.88221
-2.2
-2.5143
-2.82469
-3.13113
-3.43332
-3.73125
-4.0248
-4.3136
-4.59795
-4.87815
-5.15402
-5.42538
-5.69276
-5.95672
-6.2171
-6.47397
-6.72784
-6.97973
-7.22943
-7.47699
-7.72323
-7.96902
-8.21464
-8.46055
-8.70744
-8.95603
-9.20691
-9.46085
-9.71829
-9.97939
-10.2452
-10.5165
-10.7934
-11.0763
-11.3656
-11.6618
-11.9647
-12.2738
-12.5897
-12.9124
-13.2415
-13.5766
-13.9173
-14.2633
-14.6136
-14.9671
-15.3233
-15.6815
-16.0408
-16.4005
-16.7594
-17.1166
-17.4714
-17.8231
-18.1708
-18.5143
-18.8526
-19.1853
-19.512
-19.8321
-20.1458
-20.4531
-20.7539
-21.0489
-21.338
-21.6213
-21.8994
-22.1729
-22.4422
-22.7076
-22.97
-23.2305
-23.4893
-23.7463
-24.0026
-24.2591
-24.516
-24.7738
-25.0327
-25.293
-25.5552
-25.8189
-26.0846
-26.3527
-26.6229
-26.8949
-27.1686
-27.4442
-27.7213
-27.9996
-28.2788
-28.5587
-28.839
-29.1194
-29.3994
-29.678
-29.9555
-30.2318
-30.5062
-30.779
-31.0493
-31.3166
-31.581
-31.8424
-32.1004
-32.3547
-32.6051
-32.8517
-33.0944
-33.3335
-33.5685
-33.7997
-34.0269
-34.2502
-34.4699
-34.6857
-34.8984
-35.1084
-35.3158
-35.521
-35.7242
-35.9255
-36.1254
-36.3243
-36.5226
-36.7209
-36.9191
-37.1171
-37.3158
-37.5151
-37.7155
-37.9173
-38.1206
-38.3256
-38.5325
-38.7418
-38.9531
-39.1665
-39.382
-39.6
-39.8202
-40.0424
-40.2665
-40.4927
-40.7206
-40.9501
-41.1809
-41.4127
-41.6455
-41.8791
-42.1132
-42.3477
-42.5821
-42.8168
-43.0509
-43.2842
-43.5164
-43.7477
-43.9776
-44.2061
-44.4328
-44.6576
-44.8806
-45.1013
-45.3199
-45.5375
-45.7534
-45.9672
-46.1794
-46.3904
-46.6001
-46.8084
-47.0158
-47.2227
-47.429
-47.6346
-47.8398
-48.0448
-48.2496
-48.4546
-48.6595
-48.8645
-49.0693
-49.2737
-49.4777
-49.6813
-49.8839
-50.0853
-50.2853
-50.4833
-50.6794
-50.8733
-51.0646
-51.2536
-51.4396
-51.6219
-51.8009
-51.9766
-52.1489
-52.318
-52.4836
-52.6463
-52.8059
-52.9627
-53.1169
-53.269
-53.4188
-53.5678
-53.7153
-53.8617
-54.0074
-54.1531
-54.2983
-54.4432
-54.588
-54.7329
-54.878
-55.0235
-55.1691
-55.3152
-55.4612
-55.6072
-55.7528
-55.8987
-56.0437
-56.1882
-56.3316
-56.4741
-56.615
-56.7547
-56.8928
-57.0294
-57.164
-57.2973
-57.4284
-57.5576
-57.6844
-57.8092
-57.9311
-58.0505
-58.1667
-58.2804
-58.3903
-58.497
-58.5991
-58.6965
-58.7884
-58.8747
-58.9541
-59.0266
-59.0906
-59.1462
-59.192
-59.2272
-59.2509
-59.2629
-59.2618
-59.2477
-59.2188
-59.1752
-59.1153
-59.0389
-58.9449
-58.833
-58.7019
-58.5517
-58.381
-58.1897
-57.9765
-57.741
-57.4823
-57.1999
-56.8928
-56.5603
-56.2013
-55.8161
-55.403
-54.9621
-54.4919
-53.9922
-53.4618
-52.9004
-52.3073
-51.6829
-51.0262
-50.3376
-49.6168
-48.8639
-48.0791
-47.264
-46.4181
-45.5428
-44.6385
-43.7061
-42.7469
-41.7628
-40.7546
-39.7242
-38.6726
-37.6019
-36.5132
-35.4078
-34.2874
-33.1541
-32.0087
-30.853
-29.6877
-28.5147
-27.3342
-26.1472
-24.9546
-23.7576
-22.5566
-21.3525
-20.1454
-18.9365
-17.7258
-16.514
-15.3013
-14.0883
-12.8753
-11.6627
-10.4509
-9.2412
-8.03372
-6.82942
-5.62886
-4.43269
-3.24186
-2.05753
-0.88039
0.288597
1.44849
2.59882
3.73814
4.8653
5.97974
7.0805
8.1668
9.23845
10.2943
11.3336
12.356
13.3612
14.3488
15.3188
16.2709
17.2053
18.1217
19.02
19.9006
20.7639
21.6099
22.4391
23.2515
24.0474
24.8272
25.5912
26.3394
27.0724
27.7902
28.4941
29.1832
29.8579
30.5181
31.1647
31.7971
32.4151
33.0189
33.609
34.1851
34.7475
35.2956
35.8305
36.3512
36.8582
37.3512
37.8307
38.2965
38.7491
39.188
39.6138
40.0264
40.4263
40.8134
41.1887
41.5521
41.9045
42.2456
42.5757
42.8953
43.2058
43.5067
43.7987
44.0822
44.3589
44.628
44.8903
45.1463
45.3971
45.6427
45.8841
46.1213
46.3554
46.5863
46.8153
47.0421
47.2676
47.4917
47.7149
47.9372
48.1599
48.3819
48.6036
48.8248
49.0457
49.2661
49.4864
49.7057
49.9247
50.1423
50.358
50.5718
50.7838
50.9934
51.201
51.4055
51.6073
51.8057
52.0009
52.1925
52.3813
52.5666
52.7487
52.9276
53.1043
53.2783
53.4497
53.6188
53.7867
53.9528
54.1177
54.2813
54.4444
54.6066
54.7683
54.9293
55.0899
55.2498
55.4091
55.5671
55.724
55.8789
56.0317
56.1816
56.328
56.4706
56.609
56.7422
56.8696
56.9906
57.1047
57.2112
57.3102
57.4007
57.4818
57.5537
57.6164
57.6692
57.7123
57.7452
57.7683
57.7811
57.7838
57.7763
57.7589
57.7314
57.6946
57.6482
57.5921
57.5268
57.4521
57.3683
57.276
57.1748
57.0649
56.9462
56.819
56.6833
56.5395
56.3873
56.227
56.0587
55.8824
55.6983
55.5072
55.3088
55.1034
54.8913
54.6731
54.4487
54.2185
53.9829
53.7427
53.4978
53.2485
52.9952
52.738
52.4774
52.2141
51.9479
51.6791
51.4077
51.1343
50.8588
50.5812
50.3017
50.021
49.7388
49.4549
49.1697
48.8845
48.5985
48.3114
48.0238
47.7366
47.4495
47.1628
46.8769
46.5924
46.3093
46.0277
45.7484
45.4719
45.198
44.927
44.6591
44.3946
44.1335
43.8758
43.6214
43.3702
43.1221
42.8773
42.6354
42.3963
42.1596
41.9246
41.6913
41.4602
41.2302
41.0012
40.7726
40.5437
40.315
40.0861
39.8572
39.6286
39.4
39.1712
38.9426
38.7143
38.4867
38.2599
38.0341
37.8101
37.5881
37.3676
37.1497
36.9352
36.7238
36.5151
36.3101
36.1092
35.9122
35.7194
35.5306
35.3455
35.1642
34.9862
34.8116
34.6399
34.4714
34.3066
34.1443
33.9841
33.8261
33.6699
33.5156
33.3626
33.2112
33.0614
32.9128
32.7661
32.6208
32.4764
32.3333
32.1914
32.051
31.9116
31.7736
31.6373
31.5023
31.3681
31.2348
31.1025
30.9705
30.8387
30.7068
30.5744
30.4411
30.3064
30.1699
30.0309
29.8891
29.7441
29.5955
29.4423
29.2846
29.1223
28.9549
28.7824
28.6047
28.422
28.2341
28.0414
27.8441
27.6424
27.4367
27.2272
27.0146
26.7989
26.5811
26.3618
26.1414
25.9205
25.6993
25.478
25.2571
25.0374
24.8186
24.6007
24.3837
24.1678
23.9528
23.7384
23.5246
23.3115
23.0985
22.885
22.6708
22.4557
22.2393
22.0216
21.8022
21.5814
21.3585
21.1329
20.9051
20.6754
20.4437
20.2102
19.9749
19.7381
19.5001
19.2611
19.0216
18.7817
18.5418
18.3023
18.0636
17.826
17.5896
17.3543
17.1206
16.8888
16.6588
16.4306
16.2041
15.9791
15.7557
15.5342
15.314
15.0951
14.8771
14.6594
14.4422
14.2251
14.0081
13.7915
13.5748
13.3581
13.1409
12.9231
12.7048
12.4858
12.2662
12.0456
11.8241
11.6023
11.3798
11.1563
10.9321
10.7069
10.4809
10.2547
10.0276
9.79994
9.57152
9.34267
9.11303
8.88196
8.64996
8.41718
8.18336
7.94852
7.71265
7.47573
7.23772
6.99828
6.75765
6.51584
6.27267
6.02792
5.78177
5.53462
5.28604
5.0366
4.78559
4.53233
4.2773
4.02012
3.76102
3.49939
3.2356
2.96997
2.70185
2.43089
2.15709
1.88006
1.5999
1.31636
1.02952
0.739569
0.446228
0.149251
-0.150979
-0.454454
-0.760908
-1.06982
-1.38135
-1.69617
-2.01301
-2.33147
-2.65114
-2.97189
-3.29311
-3.61413
-3.93485
-4.25505
-4.5741
-4.89194
-5.20783
-5.52168
-5.83298
-6.14149
-6.44694
-6.74991
-7.04945
-7.34531
-7.63745
-7.92612
-8.21073
-8.49091
-8.76674
-9.03851
-9.30567
-9.56798
-9.82527
-10.0775
-10.3242
-10.5659
-10.8013
-11.0307
-11.2533
-11.4682
-11.6755
-11.8753
-12.0666
-12.2493
-12.4229
-12.5872
-12.7415
-12.8854
-13.0186
-13.1416
-13.2534
-13.3537
-13.4423
-13.5191
-13.584
-13.6373
-13.6787
-13.7085
-13.7265
-13.7331
-13.7281
-13.7119
-13.6846
-13.6468
-13.5983
-13.5396
-13.4706
-13.3912
-13.3019
-13.2032
-13.0952
-12.9787
-12.8532
-12.7194
-12.577
-12.4264
-12.2676
-12.1011
-11.9267
-11.7447
-11.555
-11.3577
-11.1529
-10.9409
-10.7214
-10.4948
-10.2609
-10.0204
-9.77279
-9.51829
-9.25692
-8.98897
-8.71446
-8.43351
-8.1464
-7.85383
-7.55564
-7.25181
-6.94307
-6.62986
-6.31262
-5.99183
-5.66805
-5.34239
-5.01503
-4.68648
-4.35759
-4.02912
-3.70182
-3.37697
-3.05479
-2.73565
-2.42054
-2.10976
-1.80412
-1.50381
-1.20948
-0.921844
-0.640789
-0.36627
-0.0985449
0.162471
0.416901
0.664808
0.90675
1.1434
1.37474
1.60148
1.82392
2.04271
2.25813
2.47039
2.67998
2.88774
3.09348
3.29777
3.5002
3.70076
3.8991
4.0944
4.28672
4.47597
4.66102
4.8418
5.01676
5.18511
5.3458
5.49783
5.64026
5.77255
5.89341
6.00183
6.09717
6.17965
6.24781
6.30115
6.33938
6.36266
6.37057
6.36341
6.34114
6.3041
6.2528
6.18864
6.11138
6.02199
5.92084
5.80862
5.68605
5.55411
5.41347
5.26508
5.10921
4.94724
4.77887
4.6045
4.42451
4.23978
4.05006
3.85587
3.65683
3.45274
3.24384
3.03046
2.8122
2.5897
2.36214
2.12943
1.89156
1.64883
1.40088
1.14789
0.889951
0.627715
0.36081
0.0891827
-0.186692
-0.466077
-0.749189
-1.03527
-1.32435
-1.61592
-1.90992
-2.2062
-2.50435
-2.80388
-3.10478
-3.40651
-3.7094
-4.01328
-4.31821
-4.62406
-4.93083
-5.23871
-5.54752
-5.85712
-6.16782
-6.47969
-6.79276
-7.10719
-7.42292
-7.73979
-8.05805
-8.37816
-8.69941
-9.0218
-9.3453
-9.67028
-9.99607
-10.3229
-10.6503
-10.978
-11.306
-11.6351
-11.9642
-12.2934
-12.6227
-12.9524
-13.2819
-13.6116
-13.9411
-14.2711
-14.6007
-14.9306
-15.2601
-15.5898
-15.919
-16.2481
-16.5767
-16.9053
-17.2329
-17.5593
-17.8839
-18.2078
-18.5291
-18.8476
-19.1622
-19.4729
-19.7782
-20.0777
-20.3698
-20.6544
-20.9293
-21.194
-21.4466
-21.6866
-21.9118
-22.1212
-22.3128
-22.4857
-22.638
-22.7694
-22.8771
-22.9607
-23.0177
-23.0469
-23.0469
-23.0172
-22.9557
-22.8616
-22.7333
-22.5707
-22.3722
-22.1373
-21.865
-21.5554
-21.2073
-20.8208
-20.3952
-19.9308
-19.4269
-18.8841
-18.3022
-17.6821
-17.0235
-16.3274
-15.5938
-14.8236
-14.0173
-13.1765
-12.3014
-11.3933
-10.453
-9.48181
-8.4805
-7.45071
-6.39313
-5.30984
-4.2014
-3.06886
-1.91388
-0.738333
0.45682
1.66935
2.89847
4.14217
5.39959
6.66872
7.94844
9.23759
10.5343
11.8366
13.1433
14.4524
15.7631
17.0733
18.3821
19.6886
20.991
22.2873
23.5771
24.8586
26.1313
27.3941
28.646
29.8856
31.1124
32.3252
33.5239
34.7079
35.8765
37.0296
38.1664
39.2862
40.389
41.4744
42.5423
43.5921
44.6239
45.6372
46.6319
47.6084
48.5662
49.5046
50.4238
51.3238
52.2044
53.0657
53.9072
54.7289
55.5306
56.3132
57.076
57.819
58.5423
59.2468
59.9322
60.5987
61.2469
61.8783
62.4922
63.0896
63.6708
64.2366
64.7876
65.3248
65.8484
66.3598
66.8589
67.3465
67.8231
68.29
68.747
69.1943
69.6323
70.0622
70.4832
70.896
71.3001
71.6962
72.0838
72.4633
72.834
73.1966
73.5502
73.8953
74.2313
74.5582
74.8757
75.1847
75.4843
75.7754
76.0575
76.3308
76.5956
76.8533
77.1031
77.3454
77.581
77.8105
78.0343
78.2535
78.4682
78.6791
78.887
79.0927
79.2966
79.5004
79.7038
79.9077
80.1124
80.319
80.5277
80.7391
80.9535
81.1718
81.394
81.6204
81.8511
82.0857
82.3247
82.5688
82.8173
83.0705
83.3278
83.5894
83.8546
84.123
84.3943
84.6684
84.9446
85.2228
85.5021
85.7832
86.0647
86.3462
86.6273
86.9071
87.1859
87.4634
87.7396
88.0148
88.2884
88.5611
88.8323
89.102
89.3704
89.6382
89.9055
90.1735
90.4417
90.7106
90.9804
91.2514
91.5241
91.7993
92.0768
92.3573
92.6404
92.9262
93.2147
93.5063
93.8001
94.0964
94.3943
94.6933
94.9931
95.2936
95.5936
95.8927
96.19
96.4846
96.776
97.0643
97.3482
97.627
97.9
98.1671
98.4272
98.6802
98.9253
99.1625
99.391
99.611
99.8217
100.023
100.215
100.396
100.567
100.726
100.873
101.009
101.132
101.241
101.337
101.418
101.485
101.535
101.569
101.587
101.587
101.571
101.536
101.482
101.41
101.319
101.21
101.082
100.936
100.772
100.59
100.392
100.177
99.9465
99.7008
99.4416
99.169
98.8843
98.588
98.2812
97.9644
97.639
97.3052
96.9637
96.6148
96.2604
95.8996
95.5328
95.1605
94.7829
94.4001
94.0132
93.6213
93.2251
92.8241
92.4189
92.0089
91.5948
91.1761
90.7531
90.3258
89.8946
89.4592
89.0199
88.5768
88.1302
87.68
87.227
86.7706
86.3108
85.8474
85.3808
84.9104
84.4367
83.9587
83.4757
82.9878
82.4949
81.996
81.4908
80.9784
80.4578
79.9288
79.3905
78.8428
78.2863
77.7192
77.1414
76.5529
75.9537
75.3438
74.7237
74.0937
73.4542
72.806
72.1504
71.4881
70.8196
70.1468
69.4708
68.793
68.1151
67.4382
66.7635
66.0924
65.4259
64.7652
64.1117
63.466
62.8284
62.2
61.5809
60.9716
60.373
59.7842
59.2041
58.6333
58.0711
57.5171
56.9709
56.4317
55.898
55.3697
54.8463
54.3268
53.8105
53.2969
52.7858
52.2763
51.7678
51.2606
50.7544
50.2493
49.7455
49.2434
48.7424
48.2439
47.7488
47.2573
46.7699
46.2876
45.8112
45.3413
44.8791
44.425
43.98
43.5446
43.119
42.7042
42.3001
41.9076
41.527
41.1581
40.8013
40.4562
40.1223
39.7998
39.488
39.1868
38.8949
38.6122
38.3382
38.0719
37.8121
37.5585
37.3099
37.0658
36.8255
36.5883
36.3536
36.1207
35.8887
35.6574
35.4258
35.1941
34.9623
34.73
34.4967
34.2625
34.027
33.7906
33.553
33.3145
33.0747
32.834
32.5922
32.3493
32.1054
31.8606
31.6147
31.3677
31.1194
30.8697
30.6183
30.3649
30.1089
29.8506
29.5901
29.3269
29.0609
28.7919
28.5192
28.2435
27.9656
27.685
27.4011
27.1152
26.827
26.5376
26.2478
25.9582
25.6694
25.3823
25.0971
24.815
24.5371
24.2641
23.9971
23.7365
23.4827
23.2365
22.9985
22.7689
22.5475
22.3346
22.1301
21.9337
21.7451
21.5637
21.3885
21.2192
21.055
20.8947
20.7378
20.583
20.4296
20.2764
20.1224
19.9673
19.8105
19.6513
19.4888
19.3233
19.1549
18.9834
18.809
18.632
18.4525
18.2714
18.0899
17.908
17.726
17.5451
17.366
17.1894
17.0161
16.8467
16.6819
16.5221
16.3676
16.2187
16.0757
15.9385
15.807
15.6809
15.5601
15.4438
15.3321
15.224
15.1185
15.0152
14.9134
14.8123
14.711
14.6091
14.5059
14.4009
14.2936
14.1834
14.0699
13.9526
13.831
13.7051
13.5753
13.4411
13.3022
13.1592
13.0121
12.8612
12.707
12.5496
12.3891
12.2259
12.0606
11.8929
11.7233
11.5517
11.3782
11.2031
11.0264
10.8479
10.6679
10.4859
10.3019
10.1156
9.92705
9.73553
9.54094
9.34277
9.14062
8.9343
8.72364
8.50823
8.28775
8.06205
7.83188
7.59612
7.3548
7.10768
6.85464
6.59579
6.33115
6.06082
5.78553
5.50492
5.21856
4.92718
4.63131
4.33074
4.02622
3.71736
3.40417
3.08688
2.76608
2.44147
2.11401
1.78282
1.44804
1.10944
0.766951
0.42057
0.0701378
-0.284483
-0.642977
-1.00605
-1.37402
-1.74708
-2.12515
-2.50888
-2.89847
-3.29432
-3.69673
-4.10582
-4.52136
-4.94387
-5.37358
-5.81053
-6.25395
-6.70468
-7.16257
-7.62774
-8.10013
-8.57958
-9.06613
-9.55933
-10.0584
-10.5636
-11.0749
-11.5919
-12.1142
-12.6418
-13.1744
-13.712
-14.2538
-14.8002
-15.3509
-15.9055
-16.4641
-17.0264
-17.5916
-18.16
-18.7313
-19.3053
-19.882
-20.4612
-21.0419
-21.6247
-22.2091
-22.7948
-23.3818
-23.9696
-24.5577
-25.1461
-25.7344
-26.3223
-26.9092
-27.495
-28.0794
-28.6619
-29.2424
-29.8205
-30.3952
-30.9669
-31.5353
-32.1
-32.6611
-33.2181
-33.771
-34.3196
-34.8633
-35.4024
-35.9369
-36.4668
-36.992
-37.5124
-38.0273
-38.5379
-39.045
-39.5482
-40.0478
-40.5443
-41.0381
-41.5297
-42.0197
-42.5084
-42.9963
-43.484
-43.9719
-44.4605
-44.9502
-45.4416
-45.9346
-46.4301
-46.9287
-47.4304
-47.9354
-48.4436
-48.9548
-49.4693
-49.9869
-50.5074
-51.0305
-51.5563
-52.0851
-52.616
-53.149
-53.6835
-54.2192
-54.7555
-55.2919
-55.8282
-56.3641
-56.8992
-57.4331
-57.9655
-58.4964
-59.0253
-59.552
-60.0762
-60.5978
-61.1163
-61.6318
-62.1438
-62.6523
-63.1568
-63.6574
-64.1536
-64.6451
-65.1318
-65.6139
-66.0911
-66.5638
-67.0313
-67.4937
-67.9509
-68.4035
-68.8514
-69.2951
-69.7344
-70.1697
-70.6014
-71.0304
-71.4567
-71.8811
-72.3041
-72.7271
-73.1501
-73.5739
-73.9994
-74.4276
-74.8589
-75.2937
-75.7327
-76.1769
-76.6264
-77.0811
-77.5415
-78.0084
-78.4811
-78.9596
-79.4435
-79.9328
-80.4266
-80.9237
-81.4235
-81.9256
-82.4286
-82.9311
-83.4321
-83.9305
-84.4249
-84.9146
-85.3977
-85.8732
-86.3396
-86.7957
-87.2401
-87.6722
-88.0907
-88.4947
-88.8835
-89.2568
-89.6137
-89.9542
-90.2777
-90.5841
-90.8734
-91.1462
-91.4022
-91.6422
-91.8665
-92.0759
-92.2709
-92.4523
-92.6208
-92.7778
-92.9238
-93.06
-93.1873
-93.3065
-93.4188
-93.5253
-93.6267
-93.7249
-93.82
-93.9127
-94.0037
-94.0939
-94.1837
-94.2743
-94.3651
-94.456
-94.5473
-94.6388
-94.7304
-94.8223
-94.9137
-95.0042
-95.0931
-95.1799
-95.264
-95.3448
-95.4212
-95.4928
-95.5585
-95.6178
-95.67
-95.7143
-95.7504
-95.7786
-95.7979
-95.8082
-95.8094
-95.8019
-95.7854
-95.7602
-95.7269
-95.6868
-95.6399
-95.5872
-95.5294
-95.4671
-95.4016
-95.3343
-95.2658
-95.1971
-95.1295
-95.064
-95.0016
-94.9429
-94.8891
-94.8412
-94.7996
-94.7657
-94.7394
-94.7209
-94.7107
-94.7093
-94.7165
-94.7317
-94.7553
-94.7874
-94.8271
-94.8738
-94.9273
-94.9872
-95.0528
-95.1234
-95.1982
-95.2762
-95.3569
-95.4398
-95.524
-95.6088
-95.6937
-95.7788
-95.8631
-95.9461
-96.0275
-96.1073
-96.1852
-96.2607
-96.3341
-96.4065
-96.4771
-96.5459
-96.6133
-96.6799
-96.7455
-96.8107
-96.8757
-96.9409
-97.0065
-97.0727
-97.1397
-97.2089
-97.2795
-97.3517
-97.4256
-97.5011
-97.5783
-97.6577
-97.7388
-97.8219
-97.9064
-97.9922
-98.0791
-98.1679
-98.2576
-98.348
-98.4384
-98.5288
-98.6186
-98.7077
-98.7952
-98.881
-98.9641
-99.0445
-99.1211
-99.1932
-99.2601
-99.3212
-99.3753
-99.4219
-99.4596
-99.4881
-99.5057
-99.5121
-99.5059
-99.4864
-99.4522
-99.4032
-99.3377
-99.2551
-99.1543
-99.0354
-98.8971
-98.7387
-98.5595
-98.3594
-98.1379
-97.8954
-97.6311
-97.3452
-97.0373
-96.7079
-96.3565
-95.9842
-95.5906
-95.1759
-94.7404
-94.2848
-93.8091
-93.3144
-92.8006
-92.2686
-91.7187
-91.1515
-90.5675
-89.968
-89.353
-88.7234
-88.0794
-87.4221
-86.7518
-86.0696
-85.3756
-84.6706
-83.9549
-83.2298
-82.4953
-81.7518
-80.9999
-80.2409
-79.4743
-78.7007
-77.92
-77.1324
-76.338
-75.5372
-74.7294
-73.9142
-73.0917
-72.2624
-71.4254
-70.5805
-69.7274
-68.8663
-67.9964
-67.1177
-66.23
-65.3342
-64.4294
-63.5157
-62.5933
-61.6628
-60.7242
-59.7787
-58.8261
-57.8673
-56.903
-55.9345
-54.9621
-53.987
-53.0099
-52.0318
-51.0535
-50.0756
-49.0989
-48.1244
-47.1525
-46.1831
-45.2172
-44.255
-43.2968
-42.3432
-41.3938
-40.4486
-39.5078
-38.5712
-37.6386
-36.7097
-35.7846
-34.8633
-33.9453
-33.0307
-32.1195
-31.2115
-30.307
-29.4056
-28.508
-27.6141
-26.7244
-25.8395
-24.9596
-24.085
-23.2163
-22.3534
-21.4972
-20.6483
-19.8072
-18.9743
-18.15
-17.3341
-16.5277
-15.7309
-14.944
-14.1675
-13.4014
-12.6452
-11.8998
-11.1654
-10.442
-9.72945
-9.02795
-8.33755
-7.65826
-6.9892
-6.33123
-5.68396
-5.0476
-4.42187
-3.80694
-3.20235
-2.60816
-2.02337
-1.44862
-0.883708
-0.328328
0.218137
0.755763
1.2858
1.80779
2.32261
2.83029
3.3317
3.82684
4.31665
4.80095
5.28042
5.75517
6.22616
6.693
7.15582
7.61467
8.06969
8.5208
8.96877
9.41259
9.85256
10.288
10.7189
11.1444
11.5654
11.9804
12.3893
12.7912
13.186
13.5731
13.9526
14.3237
14.6867
15.0409
15.3868
15.7235
16.0511
16.3694
16.6789
16.9791
17.2705
17.5528
17.8264
18.0911
18.3477
18.5958
18.8362
19.0684
19.2927
19.5092
19.7186
19.9204
20.1152
20.3025
20.4826
20.6552
20.8212
20.9795
21.1302
21.273
21.4087
21.5362
21.6556
21.7665
21.8693
21.9632
22.0483
22.1241
22.1908
22.2477
22.2946
22.3313
22.3577
22.3736
22.3799
22.3756
22.3607
22.3351
22.2992
22.2528
22.1962
22.1292
22.053
21.9668
21.8713
21.7663
21.6525
21.5297
21.3981
21.2579
21.1094
20.9527
20.7879
20.6152
20.4354
20.2477
20.0525
19.8493
19.6383
19.4191
19.192
18.9566
18.7126
18.4601
18.1993
17.9297
17.652
17.3654
17.0698
16.7653
16.4533
16.1326
15.804
15.4675
15.1233
14.772
14.4141
14.0499
13.6807
13.3061
12.9266
12.5429
12.1567
11.7677
11.3762
10.9829
10.5886
10.1937
9.79906
9.40477
9.01125
8.6188
8.22841
7.83964
7.4529
7.06814
6.68497
6.30402
5.92575
5.54976
5.17648
4.80521
4.43551
4.06759
3.70145
3.33679
2.97311
2.61048
2.24931
1.88869
1.52822
1.16785
0.80728
0.446275
0.0847717
-0.277636
-0.640957
-1.00554
-1.37151
-1.73925
-2.10933
-2.48151
-2.85608
-3.23317
-3.6132
-3.99592
-4.38124
-4.76941
-5.16075
-5.55497
-5.95213
-6.35194
-6.75388
-7.15815
-7.565
-7.97358
-8.38333
-8.79397
-9.20535
-9.61668
-10.0278
-10.4379
-10.8466
-11.2531
-11.6573
-12.0583
-12.4555
-12.8484
-13.2368
-13.62
-13.9979
-14.3698
-14.7358
-15.0953
-15.448
-15.7939
-16.1337
-16.4663
-16.7917
-17.11
-17.4213
-17.7255
-18.0232
-18.314
-18.5983
-18.8755
-19.1456
-19.4086
-19.6652
-19.9146
-20.1565
-20.391
-20.6183
-20.8375
-21.0487
-21.2512
-21.4447
-21.6287
-21.8027
-21.9664
-22.1195
-22.2614
-22.3926
-22.512
-22.6193
-22.7144
-22.7976
-22.8682
-22.9258
-22.9709
-23.0042
-23.0253
-23.0342
-23.0316
-23.0185
-22.9948
-22.961
-22.9176
-22.8663
-22.8065
-22.7387
-22.6638
-22.5822
-22.4946
-22.402
-22.3045
-22.2028
-22.0972
-21.9876
-21.8747
-21.7597
-21.6421
-21.5226
-21.4011
-21.278
-21.1534
-21.028
-20.9017
-20.7749
-20.6478
-20.5217
-20.3961
-20.2714
-20.1479
-20.0255
-19.905
-19.787
-19.6715
-19.5597
-19.4513
-19.3457
-19.244
-19.1463
-19.0527
-18.963
-18.8775
-18.7968
-18.7203
-18.648
-18.5797
-18.5152
-18.4546
-18.3974
-18.3436
-18.2928
-18.245
-18.2007
-18.159
-18.1192
-18.0818
-18.0464
-18.0132
-17.982
-17.9527
-17.9254
-17.8999
-17.8761
-17.8542
-17.8342
-17.8162
-17.8004
-17.7868
-17.775
-17.7652
-17.7572
-17.7515
-17.7481
-17.7469
-17.748
-17.7514
-17.7567
-17.7644
-17.7747
-17.7878
-17.8033
-17.822
-17.8445
-17.8707
-17.9008
-17.9352
-17.9739
-18.0177
-18.0672
-18.1227
-18.1838
-18.2517
-18.3266
-18.409
-18.499
-18.597
-18.7031
-18.8177
-18.9397
-19.07
-19.2088
-19.3556
-19.5096
-19.6709
-19.8397
-20.0149
-20.195
-20.3803
-20.5698
-20.763
-20.9591
-21.1576
-21.3573
-21.558
-21.7589
-21.9593
-22.1583
-22.3556
-22.5508
-22.7435
-22.9331
-23.1195
-23.3027
-23.4824
-23.6579
-23.8299
-23.9987
-24.1644
-24.3264
-24.4859
-24.6438
-24.8
-24.9546
-25.1083
-25.2619
-25.416
-25.5708
-25.7273
-25.8863
-26.0484
-26.2141
-26.3844
-26.5601
-26.7416
-26.929
-27.1236
-27.3259
-27.5363
-27.7552
-27.9829
-28.2192
-28.4649
-28.7204
-28.9854
-29.2589
-29.5415
-29.8331
-30.1333
-30.4416
-30.7575
-31.0803
-31.4093
-31.7439
-32.0832
-32.4263
-32.7727
-33.1216
-33.472
-33.8228
-34.1736
-34.5234
-34.8718
-35.218
-35.5616
-35.9024
-36.2399
-36.5737
-36.9038
-37.2304
-37.553
-37.8713
-38.1858
-38.4964
-38.8038
-39.1084
-39.4104
-39.7095
-40.0067
-40.3022
-40.5966
-40.8907
-41.1843
-41.4775
-41.771
-42.0652
-42.3604
-42.6571
-42.9553
-43.2555
-43.5578
-43.8621
-44.1689
-44.4784
-44.7908
-45.1065
-45.4256
-45.7481
-46.0743
-46.4045
-46.7388
-47.0773
-47.4203
-47.7674
-48.1194
-48.4766
-48.8389
-49.2065
-49.5794
-49.9578
-50.3416
-50.7311
-51.126
-51.5266
-51.9324
-52.3436
-52.7597
-53.1808
-53.6062
-54.0358
-54.4688
-54.905
-55.3438
-55.784
-56.2256
-56.6686
-57.1118
-57.5551
-57.9973
-58.4377
-58.8757
-59.3116
-59.744
-60.172
-60.5954
-61.0136
-61.4262
-61.8329
-62.2332
-62.6265
-63.0127
-63.3921
-63.7639
-64.1284
-64.485
-64.8337
-65.1744
-65.5078
-65.833
-66.1488
-66.4563
-66.7552
-67.0455
-67.3276
-67.6007
-67.8645
-68.1193
-68.3647
-68.6006
-68.8275
-69.0446
-69.252
-69.4493
-69.6368
-69.8144
-69.9817
-70.139
-70.2861
-70.4234
-70.5518
-70.6708
-70.7801
-70.8807
-70.9738
-71.0593
-71.1378
-71.2097
-71.2761
-71.3373
-71.3938
-71.4466
-71.4968
-71.5449
-71.5919
-71.6384
-71.6848
-71.732
-71.781
-71.8323
-71.8866
-71.9441
-72.0055
-72.0708
-72.14
-72.2136
-72.2918
-72.3745
-72.4617
-72.5533
-72.6493
-72.7493
-72.8534
-72.961
-73.072
-73.1857
-73.3021
-73.4208
-73.5418
-73.6644
-73.7881
-73.9125
-74.0377
-74.1633
-74.2888
-74.4146
-74.5404
-74.6659
-74.7915
-74.917
-75.0423
-75.1674
-75.2919
-75.4166
-75.5415
-75.6668
-75.7923
-75.9185
-76.0458
-76.1743
-76.3039
-76.4354
-76.5695
-76.706
-76.8451
-76.9872
-77.133
-77.2824
-77.4357
-77.5932
-77.7552
-77.922
-78.0933
-78.2696
-78.451
-78.6374
-78.8287
-79.0251
-79.2262
-79.4321
-79.6424
-79.8571
-80.0763
-80.2995
-80.5262
-80.7561
-80.9885
-81.2234
-81.461
-81.7006
-81.9415
-82.1838
-82.4271
-82.6714
-82.9163
-83.162
-83.4084
-83.6554
-83.903
-84.1511
-84.4001
-84.6497
-84.8995
-85.1499
-85.4009
-85.6527
-85.905
-86.1579
-86.4119
-86.6665
-86.9213
-87.1764
-87.4313
-87.6859
-87.9408
-88.1951
-88.4481
-88.6997
-88.9495
-89.1973
-89.4427
-89.6852
-89.925
-90.1615
-90.394
-90.623
-90.8484
-91.0702
-91.2886
-91.5033
-91.7149
-91.9233
-92.1289
-92.332
-92.5329
-92.7321
-92.9297
-93.1264
-93.3231
-93.5197
-93.7159
-93.9125
-94.1097
-94.3076
-94.5062
-94.7056
-94.9056
-95.1061
-95.3069
-95.5077
-95.708
-95.9074
-96.1057
-96.3021
-96.4963
-96.6879
-96.8769
-97.0623
-97.2438
-97.421
-97.5934
-97.7609
-97.9233
-98.0807
-98.2335
-98.3813
-98.5239
-98.6619
-98.7955
-98.9249
-99.051
-99.1737
-99.2941
-99.412
-99.5275
-99.641
-99.7526
-99.8627
-99.972
-100.08
-100.187
-100.293
-100.398
-100.502
-100.604
-100.704
-100.804
-100.9
-100.995
-101.086
-101.175
-101.259
-101.34
-101.418
-101.491
-101.561
-101.626
-101.687
-101.745
-101.8
-101.851
-101.9
-101.946
-101.99
-102.033
-102.075
-102.117
-102.158
-102.2
-102.243
-102.286
-102.331
-102.377
-102.424
-102.472
-102.52
-102.569
-102.617
-102.665
-102.71
-102.754
-102.794
-102.83
-102.861
-102.887
-102.905
-102.916
-102.919
-102.912
-102.895
-102.868
-102.829
-102.78
-102.718
-102.645
-102.559
-102.462
-102.352
-102.231
-102.097
-101.952
-101.795
-101.627
-101.447
-101.257
-101.055
-100.842
-100.617
-100.382
-100.135
-99.8764
-99.6061
-99.3245
-99.0302
-98.7237
-98.4035
-98.0696
-97.7212
-97.3585
-96.9803
-96.5865
-96.1763
-95.7495
-95.3055
-94.8443
-94.3649
-93.8674
-93.351
-92.8159
-92.2612
-91.6868
-91.0925
-90.4786
-89.8443
-89.1898
-88.5147
-87.8192
-87.1028
-86.3654
-85.6069
-84.828
-84.0282
-83.2082
-82.3675
-81.506
-80.6241
-79.7222
-78.8008
-77.8608
-76.9024
-75.9272
-74.9349
-73.9266
-72.9031
-71.8657
-70.8154
-69.7538
-68.6817
-67.6004
-66.5111
-65.4149
-64.3132
-63.2072
-62.098
-60.9868
-59.8747
-58.7621
-57.6502
-56.5402
-55.4322
-54.3266
-53.2239
-52.1252
-51.03
-49.9379
-48.8495
-47.7649
-46.6842
-45.6079
-44.5353
-43.4668
-42.4022
-41.341
-40.2838
-39.2315
-38.184
-37.1414
-36.1044
-35.0735
-34.0494
-33.0322
-32.0233
-31.0238
-30.0342
-29.0558
-28.089
-27.1344
-26.1932
-25.2661
-24.3538
-23.4567
-22.5754
-21.7104
-20.8622
-20.0307
-19.2161
-18.4186
-17.6378
-16.8728
-16.1238
-15.3903
-14.6715
-13.9664
-13.2748
-12.5954
-11.9278
-11.2706
-10.6237
-9.9867
-9.35861
-8.73825
-8.12573
-7.52065
-6.92257
-6.33056
-5.74513
-5.16563
-4.59269
-4.02624
-3.46669
-2.91395
-2.36859
-1.83047
-1.30041
-0.778395
-0.265227
0.238629
0.733053
1.21834
1.69378
2.15983
2.61587
3.06259
3.49956
3.92735
4.34583
4.75571
5.15709
5.55101
5.93732
6.31618
6.68863
7.05609
7.41821
7.77617
8.12994
8.48054
8.82789
9.1726
9.5147
9.85485
10.1931
10.5299
10.8652
11.1993
11.5322
11.8642
12.195
12.525
12.8538
13.1815
13.5081
13.8339
14.1587
14.4831
14.8064
15.1287
15.4501
15.771
16.0911
16.4106
16.7293
17.0473
17.3645
17.6815
17.9975
18.3126
18.6265
18.9395
19.2508
19.5605
19.868
20.1732
20.4753
20.7739
21.0687
21.3598
21.6462
21.9272
22.2025
22.4726
22.736
22.9926
23.2418
23.4832
23.7166
23.9426
24.1601
24.3688
24.5686
24.7599
24.9422
25.1156
25.2802
25.4366
25.5845
25.7242
25.8559
25.9797
26.0959
26.2056
26.3083
26.405
26.4956
26.5807
26.6606
26.7358
26.8065
26.8733
26.9363
26.9955
27.0513
27.1044
27.1544
27.2017
27.2458
27.2871
27.3252
27.3606
27.3923
27.4196
27.4424
27.4601
27.4724
27.4785
27.4779
27.4706
27.4554
27.4318
27.3993
27.3577
27.3062
27.2451
27.1734
27.0911
26.998
26.8942
26.78
26.656
26.5224
26.3799
26.229
26.0704
25.9051
25.7346
25.5592
25.3802
25.1984
25.0151
24.8311
24.6472
24.4645
24.2838
24.1056
23.9309
23.7599
23.5928
23.4298
23.2717
23.1179
22.9677
22.821
22.678
22.5375
22.3989
22.2617
22.1252
21.9887
21.8519
21.7142
21.5748
21.4334
21.2899
21.1436
20.994
20.8412
20.6852
20.5262
20.3647
20.2007
20.0348
19.8672
19.6978
19.5276
19.3574
19.1875
19.0178
18.8494
18.6829
18.5183
18.3558
18.1957
18.038
17.8827
17.7302
17.5801
17.4318
17.2856
17.1417
16.9994
16.8584
16.7183
16.5792
16.4407
16.3021
16.1638
16.026
15.8882
15.7502
15.6124
15.4751
15.3384
15.2029
15.0687
14.9356
14.8046
14.6763
14.5511
14.4294
14.3114
14.1972
14.0875
13.9824
13.8823
13.7875
13.6978
13.6131
13.5334
13.4582
13.3876
13.3214
13.259
13.2
13.1439
13.0904
13.0388
12.9887
12.9392
12.89
12.8404
12.79
12.7383
12.6854
12.6306
12.5736
12.5142
12.4516
12.3865
12.319
12.249
12.1766
12.1023
12.026
11.9481
11.869
11.7891
11.7089
11.6285
11.5487
11.4697
11.3914
11.3145
11.2392
11.1657
11.0943
11.0252
10.9584
10.8939
10.8311
10.7703
10.7115
10.6539
10.5968
10.5398
10.4824
10.4242
10.3647
10.303
10.2385
10.1707
10.0989
10.0226
9.94169
9.85523
9.76258
9.66363
9.55831
9.44627
9.3275
9.20204
9.06974
8.93109
8.78665
8.63669
8.48189
8.32257
8.15953
7.99332
7.82455
7.65402
7.48237
7.3103
7.13849
6.96762
6.79835
6.63121
6.46708
6.30599
6.14784
5.99333
5.84301
5.69647
5.55362
5.41436
5.27898
5.14684
5.01727
4.89015
4.7654
4.64205
4.51975
4.39773
4.27519
4.15185
4.02763
3.90152
3.7727
3.641
3.50604
3.36741
3.22459
3.0777
2.92726
2.77261
2.6137
2.45066
2.28412
2.11396
1.94042
1.76398
1.58478
1.40352
1.22112
1.03762
0.853466
0.669128
0.48446
0.300316
0.117764
-0.0636202
-0.243479
-0.421908
-0.598996
-0.774721
-0.949244
-1.12271
-1.29487
-1.4667
-1.6387
-1.81123
-1.9848
-2.15989
-2.33714
-2.51706
-2.70024
-2.88717
-3.07811
-3.27366
-3.47434
-3.6801
-3.89116
-4.10754
-4.32903
-4.5556
-4.78696
-5.02264
-5.26232
-5.50535
-5.75091
-5.99846
-6.24735
-6.49685
-6.74608
-6.99455
-7.24168
-7.48691
-7.72978
-7.96988
-8.20696
-8.44096
-8.67169
-8.89947
-9.12442
-9.347
-9.56781
-9.78745
-10.0063
-10.2254
-10.4459
-10.6684
-10.8939
-11.1229
-11.3557
-11.5933
-11.8367
-12.0858
-12.3405
-12.6013
-12.868
-13.1403
-13.4181
-13.7007
-13.9873
-14.2772
-14.5697
-14.8635
-15.1572
-15.45
-15.7406
-16.028
-16.3113
-16.5892
-16.8616
-17.127
-17.3846
-17.6341
-17.875
-18.1074
-18.3311
-18.5465
-18.754
-18.9537
-19.1463
-19.3323
-19.5122
-19.6871
-19.8578
-20.0252
-20.1904
-20.354
-20.517
-20.68
-20.8439
-21.0092
-21.1764
-21.346
-21.519
-21.6951
-21.8746
-22.0575
-22.2437
-22.4333
-22.6268
-22.8236
-23.0234
-23.2263
-23.4326
-23.6415
-23.8523
-24.0652
-24.2804
-24.4971
-24.7154
-24.9348
-25.1553
-25.3764
-25.598
-25.8197
-26.0414
-26.2627
-26.4836
-26.7034
-26.9217
-27.1383
-27.3526
-27.5644
-27.7732
-27.9785
-28.18
-28.3772
-28.5699
-28.7576
-28.9396
-29.1159
-29.2868
-29.4516
-29.6101
-29.7624
-29.9082
-30.0479
-30.1818
-30.3099
-30.4323
-30.5495
-30.6623
-30.7706
-30.8744
-30.9744
-31.0712
-31.1649
-31.2557
-31.3443
-31.4306
-31.5151
-31.5982
-31.6799
-31.7599
-31.8388
-31.9169
-31.9941
-32.0705
-32.1462
-32.2215
-32.2963
-32.3704
-32.4443
-32.5184
-32.5928
-32.6677
-32.7434
-32.8199
-32.898
-32.9785
-33.0615
-33.1477
-33.2373
-33.3311
-33.4293
-33.5318
-33.6396
-33.7531
-33.8724
-33.9975
-34.1287
-34.2661
-34.4096
-34.5591
-34.7143
-34.8753
-35.0416
-35.2127
-35.3882
-35.5674
-35.7499
-35.9355
-36.1232
-36.3128
-36.5033
-36.6941
-36.8846
-37.0736
-37.2613
-37.4474
-37.6312
-37.8122
-37.9904
-38.1655
-38.3374
-38.5054
-38.6699
-38.8307
-38.9881
-39.1424
-39.2935
-39.4414
-39.5867
-39.7299
-39.8712
-40.0107
-40.1491
-40.2866
-40.4238
-40.5612
-40.6989
-40.8373
-40.9768
-41.1178
-41.2606
-41.4054
-41.5523
-41.7012
-41.8524
-42.006
-42.1619
-42.3195
-42.4792
-42.6406
-42.8039
-42.9688
-43.135
-43.3023
-43.4705
-43.6396
-43.8092
-43.9793
-44.1497
-44.3201
-44.4904
-44.6606
-44.8306
-45.0003
-45.1698
-45.3392
-45.5085
-45.6776
-45.8469
-46.0164
-46.1864
-46.3567
-46.5277
-46.6998
-46.8728
-47.0466
-47.2215
-47.3979
-47.5755
-47.7541
-47.9342
-48.1158
-48.2987
-48.4836
-48.6699
-48.857
-49.0454
-49.2354
-49.4268
-49.6194
-49.8133
-50.0092
-50.2066
-50.4058
-50.6068
-50.8097
-51.0148
-51.2225
-51.4332
-51.647
-51.8646
-52.0873
-52.3146
-52.5465
-52.7841
-53.028
-53.2788
-53.5369
-53.8028
-54.0773
-54.3605
-54.6535
-54.9559
-55.2683
-55.5902
-55.9215
-56.2621
-56.6126
-56.9717
-57.3394
-57.7145
-58.0962
-58.4834
-58.8756
-59.271
-59.669
-60.0676
-60.4653
-60.8608
-61.2533
-61.6404
-62.021
-62.3931
-62.7558
-63.1073
-63.4464
-63.7718
-64.0829
-64.3783
-64.6573
-64.9188
-65.1632
-65.3892
-65.5965
-65.7848
-65.9545
-66.105
-66.2366
-66.349
-66.4429
-66.5177
-66.5736
-66.6107
-66.6294
-66.6293
-66.6107
-66.5731
-66.5169
-66.4414
-66.3473
-66.2334
-66.0999
-65.9458
-65.7708
-65.5743
-65.3563
-65.1159
-64.8529
-64.5667
-64.2571
-63.9235
-63.5662
-63.1846
-62.7793
-62.3497
-61.8964
-61.4193
-60.9189
-60.3955
-59.8497
-59.2821
-58.6939
-58.0852
-57.4572
-56.8103
-56.1456
-55.4636
-54.7658
-54.0524
-53.3244
-52.5826
-51.8283
-51.0618
-50.2844
-49.4961
-48.698
-47.8904
-47.0743
-46.2499
-45.4185
-44.5801
-43.7351
-42.8843
-42.0288
-41.1687
-40.3048
-39.4377
-38.5691
-37.699
-36.828
-35.9573
-35.0878
-34.2205
-33.3566
-32.497
-31.6427
-30.7948
-29.9543
-29.1221
-28.2993
-27.4867
-26.6852
-25.8957
-25.1188
-24.3555
-23.6068
-22.8729
-22.1547
-21.4522
-20.7649
-20.0938
-19.4394
-18.8013
-18.1798
-17.5745
-16.985
-16.4112
-15.8528
-15.3092
-14.7799
-14.2645
-13.7613
-13.2707
-12.7927
-12.3259
-11.8694
-11.4228
-10.985
-10.5558
-10.1339
-9.71947
-9.31156
-8.90985
-8.51342
-8.12226
-7.73665
-7.35559
-6.97769
-6.6038
-6.23366
-5.86724
-5.50414
-5.14473
-4.78892
-4.43698
-4.08848
-3.74402
-3.40339
-3.06723
-2.73577
-2.40913
-2.08696
-1.77019
-1.45884
-1.15334
-0.853787
-0.560428
-0.273058
0.00790119
0.282647
0.550804
0.812915
1.06845
1.3178
1.56061
1.79712
2.02749
2.25275
2.47226
2.68648
2.89551
3.09994
3.2997
3.49522
3.68664
3.87453
4.05885
4.23972
4.41755
4.59286
4.76562
4.93659
5.10553
5.27283
5.43865
5.60303
5.7664
5.92935
6.09183
6.25472
6.41766
6.58103
6.74502
6.9098
7.07567
7.24333
7.41243
7.58297
7.75512
7.92902
8.10469
8.28217
8.46144
8.64266
8.82531
9.00938
9.19428
9.38025
9.56646
9.75266
9.93834
10.123
10.3064
10.4888
10.6689
10.8465
11.0213
11.1929
11.3609
11.5255
11.6863
11.8432
11.996
12.1454
12.2908
12.4326
12.5709
12.7061
12.8385
12.9683
13.0959
13.2218
13.3461
13.4693
13.5916
13.7138
13.8356
13.9572
14.0787
14.2006
14.3224
14.4441
14.5656
14.6866
14.8067
14.9259
15.0434
15.1592
15.2724
15.382
15.4879
15.5899
15.6871
15.7794
15.8659
15.9462
16.02
16.0867
16.1463
16.199
16.2444
16.2824
16.313
16.3369
16.3538
16.3639
16.3675
16.3648
16.3562
16.3422
16.323
16.2988
16.2701
16.2375
16.2011
16.1613
16.1181
16.0722
16.0233
15.9714
15.9166
15.8595
15.7997
15.737
15.6716
15.6038
15.5329
15.4587
15.3814
15.3006
15.2165
15.1284
15.0368
14.9417
14.8431
14.741
14.6354
14.527
14.4154
14.3007
14.1832
14.0634
13.9414
13.8171
13.691
13.564
13.4358
13.307
13.1777
13.0477
12.9176
12.7879
12.6587
12.5304
12.4031
12.2767
12.1516
12.0281
11.906
11.7856
11.6671
11.5509
11.437
11.3256
11.2172
11.1121
11.0107
10.9134
10.8206
10.7331
10.651
10.5745
10.5042
10.4399
10.3825
10.3322
10.2892
10.254
10.2263
10.2067
10.1944
10.1883
10.1888
10.196
10.2086
10.2259
10.2472
10.2715
10.298
10.3253
10.3528
10.3795
10.4042
10.4261
10.4441
10.4577
10.4656
10.4669
10.4612
10.4478
10.4267
10.3979
10.361
10.3163
10.2636
10.2035
10.1362
10.0617
9.98118
9.89554
9.80514
9.71054
9.6126
9.51187
9.40929
9.30585
9.20173
9.09755
8.99382
8.89053
8.7886
8.68889
8.59093
8.49489
8.40093
8.30916
8.21939
8.13144
8.04511
7.9601
7.87627
7.79365
7.71161
7.62985
7.54794
7.46574
7.38286
7.29898
7.21375
7.12712
7.03864
6.94838
6.85575
6.76047
6.66236
6.56164
6.45783
6.35084
6.24059
6.12669
6.0094
5.88946
5.76611
5.63919
5.50892
5.37574
5.23944
5.10038
4.95844
4.81399
4.66699
4.5182
4.36725
4.21424
4.05929
3.90252
3.74388
3.58338
3.42105
3.25651
3.08992
2.9216
2.75089
2.57773
2.40145
2.22133
2.03733
1.8493
1.65659
1.45895
1.25575
1.04659
0.830994
0.608755
0.379328
0.141992
-0.103174
-0.35589
-0.616702
-0.885689
-1.16276
-1.44784
-1.74071
-2.04111
-2.34883
-2.66357
-2.9848
-3.31206
-3.64481
-3.98221
-4.32415
-4.67
-5.01924
-5.37156
-5.72611
-6.08254
-6.44028
-6.79897
-7.15817
-7.51711
-7.87586
-8.23415
-8.59176
-8.9482
-9.30354
-9.65809
-10.0111
-10.3617
-10.7106
-11.0576
-11.4027
-11.7458
-12.0867
-12.4254
-12.7615
-13.0948
-13.425
-13.7515
-14.0743
-14.3934
-14.7082
-15.0189
-15.3249
-15.6257
-15.921
-16.21
-16.4927
-16.7694
-17.0393
-17.3024
-17.5583
-17.8064
-18.0471
-18.2808
-18.5072
-18.7261
-18.9379
-19.1422
-19.3395
-19.531
-19.7163
-19.8949
-20.068
-20.236
-20.3994
-20.5589
-20.7146
-20.8671
-21.0168
-21.1641
-21.3095
-21.4537
-21.5972
-21.7399
-21.8825
-22.0258
-22.1698
-22.3147
-22.4609
-22.6094
-22.7599
-22.9129
-23.0684
-23.2269
-23.3886
-23.5536
-23.7223
-23.8947
-24.071
-24.2515
-24.4363
-24.6258
-24.8197
-25.0183
-25.2216
-25.4299
-25.6427
-25.86
-26.0819
-26.3086
-26.5396
-26.7749
-27.0141
-27.2578
-27.5051
-27.7556
-28.0091
-28.2658
-28.5248
-28.7859
-29.0488
-29.3133
-29.579
-29.846
-30.1134
-30.3811
-30.6485
-30.9156
-31.182
-31.4473
-31.7114
-31.9746
-32.2364
-32.4971
-32.7561
-33.0138
-33.2693
-33.522
-33.7723
-34.0199
-34.2646
-34.5067
-34.7453
-34.9794
-35.2092
-35.4345
-35.6545
-35.8691
-36.0773
-36.2786
-36.472
-36.6562
-36.8311
-36.9964
-37.151
-37.2946
-37.4262
-37.5453
-37.6513
-37.7436
-37.822
-37.8865
-37.9363
-37.9711
-37.9908
-37.9964
-37.9871
-37.9636
-37.9258
-37.8741
-37.809
-37.7313
-37.6412
-37.539
-37.4258
-37.3031
-37.1708
-37.0306
-36.8824
-36.7273
-36.5659
-36.3986
-36.2266
-36.0513
-35.873
-35.6923
-35.5099
-35.3261
-35.1417
-34.9582
-34.775
-34.593
-34.4121
-34.2326
-34.0548
-33.8791
-33.7051
-33.5327
-33.3619
-33.1932
-33.0256
-32.8591
-32.6931
-32.5271
-32.3604
-32.1927
-32.0232
-31.8521
-31.6784
-31.5017
-31.3213
-31.1369
-30.948
-30.7542
-30.5551
-30.3505
-30.1404
-29.9247
-29.7035
-29.4775
-29.2464
-29.0111
-28.7713
-28.5276
-28.2805
-28.0306
-27.7785
-27.525
-27.2704
-27.0149
-26.7594
-26.5043
-26.2498
-25.996
-25.7433
-25.492
-25.2419
-24.9926
-24.7441
-24.4964
-24.2489
-24.0014
-23.7532
-23.5044
-23.2539
-23.0008
-22.7451
-22.4868
-22.2253
-21.9609
-21.693
-21.4208
-21.1448
-20.8651
-20.5819
-20.2956
-20.0065
-19.7155
-19.4228
-19.1287
-18.8341
-18.5394
-18.2454
-17.952
-17.6604
-17.3718
-17.0861
-16.8035
-16.5244
-16.2488
-15.9769
-15.7089
-15.4447
-15.1838
-14.926
-14.6711
-14.4187
-14.1683
-13.9196
-13.6725
-13.4262
-13.1803
-12.9345
-12.688
-12.4409
-12.1932
-11.9446
-11.6951
-11.4449
-11.194
-10.9427
-10.6912
-10.44
-10.1894
-9.93989
-9.69147
-9.44533
-9.20218
-8.96241
-8.72666
-8.49529
-8.26951
-8.0491
-7.8337
-7.62436
-7.42075
-7.22357
-7.03289
-6.84877
-6.67176
-6.50127
-6.33688
-6.17858
-6.02579
-5.87845
-5.73655
-5.59931
-5.46573
-5.33582
-5.20917
-5.08511
-4.96334
-4.84317
-4.72399
-4.60518
-4.48599
-4.3662
-4.24523
-4.12261
-3.9979
-3.87067
-3.74013
-3.60642
-3.46946
-3.32884
-3.18453
-3.03635
-2.88405
-2.72795
-2.56851
-2.40558
-2.23897
-2.06957
-1.8985
-1.72555
-1.55146
-1.37657
-1.20138
-1.02647
-0.851995
-0.67894
-0.508315
-0.340059
-0.174724
-0.0124327
0.146443
0.301831
0.453213
0.601064
0.745451
0.886714
1.02472
1.16031
1.29356
1.42546
1.55615
1.68668
1.81706
1.9486
2.08149
2.21691
2.35541
2.49752
2.64283
2.79254
2.94622
3.10487
3.26842
3.43709
3.6101
3.7881
3.97045
4.15728
4.34772
4.54208
4.73921
4.93967
5.14234
5.34781
5.5553
5.76554
5.97793
6.19337
6.41173
6.63412
6.86036
7.09227
7.33031
7.57634
7.83059
8.09573
8.37238
8.66338
8.96976
9.29418
9.63785
10.0035
10.3927
10.8076
11.2493
11.7201
12.2205
12.7529
13.3181
13.9176
14.5513
15.2205
15.9246
16.6647
17.4405
18.2521
19.0984
19.9796
20.8934
21.8406
22.82
23.831
24.872
25.9429
27.0423
28.1698
29.3237
30.5042
31.71
32.9413
34.1972
35.4778
36.7828
38.1122
39.465
40.8422
42.2434
43.669
45.1186
46.5926
48.0901
49.6118
51.1568
52.7255
54.3166
55.9301
57.5656
59.222
60.8971
62.5911
64.3028
66.0309
67.7735
69.5296
71.2972
73.0751
74.8615
76.6553
78.4549
80.2589
82.0659
83.8747
85.684
87.4928
89.2997
91.1039
92.9047
94.7013
96.4928
98.2789
100.059
101.833
103.599
105.358
107.11
108.853
110.588
112.314
114.03
115.736
117.432
119.116
120.789
122.448
124.093
125.724
127.339
128.937
130.519
132.081
133.625
135.147
136.648
138.127
139.581
141.01
142.414
143.792
145.142
146.464
147.757
149.021
150.255
151.459
152.634
153.777
154.891
155.975
157.03
158.055
159.053
160.023
160.965
161.882
162.774
163.641
164.487
165.31
166.114
166.899
167.666
168.416
169.151
169.872
170.579
171.275
171.959
172.631
173.294
173.945
174.587
175.218
175.84
176.45
177.051
177.64
178.217
178.78
179.331
179.867
180.388
180.894
181.382
181.853
182.306
182.741
183.158
183.555
183.935
184.295
184.638
184.962
185.27
185.561
185.838
186.101
186.353
186.593
186.824
187.048
187.265
187.478
187.69
187.9
188.113
188.327
188.546
188.77
189.001
189.24
189.488
189.744
190.012
190.29
190.577
190.875
191.183
191.501
191.828
192.163
192.505
192.854
193.208
193.567
193.929
194.293
194.659
195.023
195.387
195.747
196.106
196.459
196.809
197.152
197.49
197.822
198.148
198.467
198.781
199.088
199.388
199.682
199.971
200.253
200.53
200.801
201.067
201.327
201.58
201.827
202.068
202.301
202.527
202.744
202.953
203.151
203.338
203.512
203.674
203.821
203.954
204.071
204.171
204.253
204.318
204.364
204.392
204.402
204.394
204.369
204.327
204.268
204.195
204.109
204.011
203.903
203.786
203.661
203.531
203.396
203.26
203.123
202.988
202.854
202.724
202.598
202.477
202.361
202.251
202.147
202.048
201.954
201.865
201.779
201.695
201.612
201.528
201.443
201.355
201.262
201.163
201.056
200.939
200.812
200.673
200.521
200.355
200.173
199.976
199.763
199.534
199.289
199.028
198.751
198.458
198.151
197.829
197.494
197.147
196.788
196.42
196.043
195.658
195.267
194.87
194.47
194.066
193.662
193.256
192.852
192.449
192.049
191.652
191.259
190.871
190.488
190.111
189.741
189.378
189.022
188.674
188.334
188.001
187.678
187.363
187.057
186.76
186.473
186.194
185.925
185.665
185.415
185.174
184.943
184.723
184.513
184.313
184.124
183.945
183.778
183.621
183.476
183.342
183.221
183.111
183.014
182.929
182.857
182.799
182.753
182.722
182.704
182.7
182.71
182.734
182.773
182.827
182.896
182.979
183.078
183.191
183.32
183.464
183.622
183.796
183.984
184.187
184.405
184.636
184.882
185.141
185.415
185.702
186.002
186.315
186.642
186.981
187.333
187.698
188.075
188.465
188.867
189.281
189.707
190.145
190.594
191.055
191.527
192.01
192.504
193.009
193.522
194.045
194.577
195.115
195.66
196.21
196.764
197.322
197.882
198.441
198.999
199.554
200.105
200.65
201.187
201.715
202.232
202.737
203.228
203.704
204.163
204.607
205.032
205.44
205.829
206.198
206.548
206.878
207.188
207.48
207.752
208.005
208.241
208.458
208.659
208.842
209.009
209.162
209.3
209.424
209.533
209.63
209.712
209.782
209.84
209.885
209.917
209.937
209.944
209.939
209.92
209.889
209.845
209.788
209.716
209.631
209.532
209.419
209.29
209.147
208.988
208.813
208.623
208.416
208.193
207.953
207.696
207.422
207.13
206.82
206.491
206.144
205.777
205.392
204.987
204.562
204.118
203.654
203.171
202.668
202.146
201.607
201.048
200.473
199.881
199.273
198.649
198.012
197.361
196.7
196.027
195.346
194.657
193.963
193.263
192.56
191.855
191.149
190.443
189.738
189.036
188.337
187.642
186.952
186.268
185.591
184.921
184.257
183.6
182.951
182.31
181.676
181.05
180.431
179.82
179.216
178.62
178.03
177.447
176.87
176.3
175.735
175.176
174.622
174.074
173.53
172.991
172.456
171.924
171.396
170.869
170.346
169.824
169.304
168.784
168.264
167.743
167.222
166.699
166.175
165.649
165.119
164.587
164.051
163.511
162.969
162.422
161.872
161.319
160.761
160.201
159.637
159.072
158.504
157.935
157.365
156.795
156.224
155.655
155.088
154.523
153.962
153.404
152.85
152.301
151.757
151.218
150.685
150.157
149.635
149.119
148.608
148.102
147.601
147.104
146.61
146.121
145.633
145.147
144.662
144.177
143.691
143.202
142.711
142.215
141.715
141.21
140.699
140.181
139.656
139.123
138.583
138.035
137.479
136.915
136.342
135.763
135.176
134.583
133.985
133.381
132.772
132.16
131.545
130.929
130.312
129.695
129.078
128.463
127.85
127.241
126.634
126.031
125.432
124.837
124.248
123.663
123.083
122.507
121.935
121.368
120.804
120.243
119.684
119.128
118.574
118.02
117.467
116.913
116.36
115.806
115.251
114.695
114.138
113.578
113.018
112.456
111.894
111.33
110.765
110.201
109.636
109.073
108.511
107.951
107.393
106.839
106.289
105.744
105.205
104.671
104.143
103.623
103.11
102.604
102.106
101.616
101.133
100.658
100.191
99.7303
99.2768
98.8294
98.3875
97.9506
97.518
97.0889
96.6618
96.2365
95.8125
95.3889
94.9647
94.5395
94.1125
93.6833
93.2508
92.8153
92.3773
91.9361
91.4913
91.0433
90.5918
90.1374
89.6805
89.2215
88.7605
88.2982
87.8354
87.3722
86.9087
86.4456
85.9838
85.5233
85.0644
84.6074
84.1525
83.6998
83.2497
82.8019
82.3565
81.9136
81.4728
81.0344
80.5983
80.1644
79.7322
79.3021
78.8738
78.4476
78.0231
77.6005
77.1803
76.7625
76.3477
75.9356
75.526
75.1197
74.7175
74.3187
73.9234
73.5318
73.144
72.7599
72.3795
72.0025
71.6286
71.2574
70.8885
70.5212
70.1549
69.7888
69.4217
69.0531
68.6821
68.308
67.9301
67.5475
67.1591
66.7647
66.3644
65.9572
65.5436
65.1229
64.6945
64.2592
63.8175
63.3699
62.9174
62.4604
61.9997
61.5364
61.0714
60.6057
60.1398
59.6751
59.2126
58.753
58.297
57.8454
57.3987
56.9573
56.5213
56.0905
55.6649
55.2442
54.8277
54.4149
54.0052
53.5977
53.1917
52.7862
52.38
51.9722
51.5618
51.1479
50.7297
50.3063
49.8769
49.4409
48.9976
48.5469
48.0887
47.6231
47.15
46.6698
46.1828
45.6896
45.1908
44.6872
44.1794
43.6685
43.1551
42.6404
42.125
41.61
41.0962
40.5845
40.0754
39.5696
39.0674
38.5696
38.0758
37.5867
37.1031
36.6243
36.1496
35.6795
35.2137
34.7521
34.2942
33.8398
33.3889
32.941
32.4953
32.0521
31.6103
31.1708
30.7329
30.2972
29.8634
29.4321
29.003
28.5771
28.1538
27.7346
27.3194
26.9092
26.504
26.1053
25.7134
25.3294
24.9531
24.5859
24.2278
23.8797
23.5412
23.2137
22.897
22.5919
22.2985
22.0168
21.746
21.4871
21.2395
21.0039
20.7794
20.5665
20.3647
20.1744
19.995
19.8271
19.6702
19.5253
19.3922
19.2718
19.1641
19.0704
18.991
18.9274
18.8801
18.8509
18.8405
18.8508
18.8825
18.9379
19.0176
19.124
19.2575
19.4204
19.6129
19.8372
20.0938
20.3842
20.7093
21.0694
21.4642
21.8944
22.3596
22.8598
23.3933
23.9606
24.5601
25.1913
25.8525
26.5426
27.2595
28.0021
28.7676
29.5553
30.363
31.189
32.0309
32.8877
33.7569
34.6377
35.5283
36.4278
37.3348
38.2485
39.1673
40.091
41.0183
41.9493
42.883
43.8194
44.7578
45.6983
46.6407
47.5846
48.5294
49.4755
50.422
51.3691
52.3163
53.2634
54.21
55.1559
56.1
57.0425
57.9832
58.9214
59.8566
60.7882
61.7154
62.6384
63.5568
64.4703
65.3787
66.2818
67.1795
68.0717
68.9578
69.8384
70.7139
71.584
72.4491
73.309
74.1642
75.0144
75.8592
76.6991
77.5345
78.365
79.191
80.012
80.8273
81.6369
82.4404
83.2374
84.0277
84.8105
85.5855
86.3517
87.1085
87.8551
88.5916
89.3164
90.0292
90.7292
91.416
92.0886
92.7467
93.3898
94.0179
94.63
95.2262
95.8061
96.3695
96.9164
97.4475
97.9623
98.4617
98.9452
99.4132
99.8664
100.305
100.731
101.143
101.543
101.932
102.31
102.679
103.038
103.389
103.733
104.07
104.403
104.73
105.054
105.375
105.693
106.009
106.324
106.638
106.95
107.263
107.574
107.886
108.196
108.506
108.815
109.122
109.427
109.729
110.028
110.323
110.614
110.9
111.18
111.454
111.721
111.982
112.235
112.48
112.717
112.945
113.165
113.376
113.578
113.773
113.959
114.139
114.311
114.478
114.638
114.794
114.944
115.091
115.234
115.375
115.513
115.649
115.784
115.918
116.052
116.184
116.317
116.45
116.583
116.715
116.847
116.978
117.108
117.238
117.366
117.494
117.619
117.742
117.863
117.98
118.094
118.206
118.313
118.418
118.518
118.615
118.708
118.797
118.882
118.965
119.043
119.117
119.189
119.256
119.319
119.38
119.437
119.491
119.542
119.588
119.631
119.67
119.705
119.735
119.761
119.782
119.797
119.807
119.81
119.805
119.794
119.774
119.746
119.71
119.664
119.609
119.544
119.47
119.385
119.291
119.186
119.072
118.949
118.816
118.674
118.525
118.368
118.205
118.035
117.861
117.681
117.499
117.315
117.128
116.94
116.751
116.562
116.375
116.188
116.004
115.821
115.64
115.461
115.284
115.108
114.933
114.758
114.583
114.408
114.231
114.052
113.871
113.687
113.499
113.306
113.108
112.904
112.695
112.479
112.257
112.028
111.793
111.552
111.306
111.053
110.796
110.534
110.269
110
109.727
109.453
109.177
108.9
108.623
108.346
108.069
107.794
107.521
107.25
106.98
106.713
106.448
106.185
105.925
105.668
105.413
105.16
104.909
104.66
104.413
104.168
103.926
103.686
103.448
103.212
102.978
102.746
102.517
102.291
102.067
101.847
101.63
101.416
101.207
101.001
100.799
100.601
100.408
100.219
100.034
99.8534
99.6765
99.5035
99.3343
99.1683
99.0053
98.845
98.6867
98.5299
98.3741
98.2189
98.0646
97.9098
97.7537
97.5962
97.4367
97.2748
97.1104
96.9429
96.772
96.5973
96.4185
96.2355
96.0483
95.8566
95.6601
95.459
95.2537
95.0441
94.83
94.612
94.3902
94.1652
93.9376
93.7072
93.4744
93.2397
93.004
92.7673
92.5295
92.2917
92.055
91.8191
91.5839
91.3501
91.1178
90.8872
90.6583
90.4312
90.2055
89.9814
89.7593
89.5384
89.3185
89.0993
88.8801
88.6608
88.4404
88.2188
87.9957
87.7705
87.5423
87.3111
87.0769
86.839
86.5977
86.3524
86.1027
85.8489
85.5911
85.3293
85.0634
84.794
84.5221
84.2472
83.9699
83.6904
83.4092
83.1266
82.8436
82.5599
82.2759
81.9919
81.708
81.4247
81.1422
80.8603
80.5797
80.2997
80.0202
79.7414
79.463
79.1851
78.9074
78.6301
78.3532
78.0763
77.7995
77.5225
77.2451
76.9674
76.6895
76.4116
76.1335
75.8555
75.5779
75.3008
75.0243
74.7486
74.4736
74.1994
73.926
73.6533
73.3811
73.1094
72.8382
72.5671
72.2959
72.0243
71.7517
71.4778
71.2021
70.924
70.6429
70.3582
70.0694
69.7761
69.4783
69.1752
68.8668
68.5527
68.2329
67.9071
67.5755
67.2383
66.8959
66.5485
66.1965
65.8406
65.4814
65.1193
64.7554
64.3902
64.0243
63.6587
63.2946
62.9322
62.5721
62.2149
61.8612
61.5114
61.1657
60.8243
60.4877
60.1556
59.8281
59.505
59.1862
58.8714
58.5605
58.2527
57.9469
57.643
57.3407
57.0394
56.738
56.4364
56.1344
55.8313
55.5266
55.2199
54.9113
54.6
54.2854
53.9679
53.6473
53.3238
52.9979
52.6693
52.3376
52.0034
51.6669
51.3287
50.9896
50.6493
50.3083
49.9669
49.6255
49.2845
48.9442
48.605
48.2667
47.9302
47.5959
47.2637
46.9338
46.6063
46.2816
45.9594
45.6397
45.3227
45.0082
44.6961
44.3863
44.0786
43.7727
43.4686
43.1658
42.8644
42.5647
42.2659
41.9678
41.6703
41.3731
41.0761
40.7788
40.4814
40.1841
39.8865
39.5886
39.2904
38.9919
38.6932
38.3939
38.0944
37.7949
37.4955
37.1964
36.8977
36.6001
36.3035
36.0079
35.7135
35.4205
35.1292
34.8398
34.5525
34.2674
33.9846
33.7041
33.4262
33.1514
32.8793
32.6095
32.3425
32.0781
31.8163
31.5574
31.3009
31.0464
30.7939
30.5426
30.2931
30.0455
29.7993
29.5542
29.3102
29.0668
28.8241
28.5817
28.3398
28.0983
27.8571
27.6159
27.3748
27.1342
26.8938
26.6531
26.4126
26.1722
25.932
25.6921
25.4526
25.2133
24.9743
24.7357
24.4974
24.2589
24.0206
23.7827
23.5448
23.3066
23.0682
22.8297
22.5908
22.351
22.1106
21.8693
21.627
21.3838
21.1394
20.8937
20.6468
20.3987
20.1494
19.8993
19.648
19.395
19.141
18.8856
18.6293
18.3728
18.1157
17.8582
17.6003
17.3421
17.0836
16.8247
16.5657
16.307
16.0482
15.7885
15.5286
15.2682
15.0074
14.7456
14.4833
14.2205
13.9569
13.6926
13.4273
13.1602
12.8922
12.6234
12.3539
12.084
11.8137
11.5434
11.2733
11.0037
10.735
10.4674
10.2016
9.93862
9.67823
9.42055
9.16627
8.91549
8.66843
8.42552
8.18657
7.95127
7.71984
7.49204
7.26772
7.04648
6.82797
6.6119
6.39768
6.18521
5.97366
5.76229
5.55097
5.33939
5.12708
4.91372
4.69912
4.48325
4.26583
4.04641
3.8255
3.60349
3.38047
3.15668
2.93252
2.7081
2.48407
2.26116
2.03938
1.81871
1.59975
1.38319
1.16883
0.956475
0.74656
0.539167
0.33392
0.130529
-0.0712127
-0.27156
-0.470938
-0.669984
-0.86926
-1.06982
-1.27171
-1.47485
-1.68043
-1.88911
-2.10124
-2.31722
-2.53726
-2.76189
-2.99093
-3.22452
-3.46251
-3.70455
-3.95055
-4.2
-4.45264
-4.7081
-4.96561
-5.22447
-5.48429
-5.74473
-6.00495
-6.26421
-6.52207
-6.77864
-7.03295
-7.28427
-7.53275
-7.77824
-8.0206
-8.2596
-8.49536
-8.72825
-8.95813
-9.18506
-9.40941
-9.63116
-9.85089
-10.0689
-10.2855
-10.5011
-10.7159
-10.9302
-11.144
-11.3575
-11.5708
-11.7844
-11.998
-12.2119
-12.4258
-12.6398
-12.8537
-13.0677
-13.2814
-13.4947
-13.7075
-13.9199
-14.1314
-14.3425
-14.5526
-14.7616
-14.9695
-15.1765
-15.3824
-15.5879
-15.7924
-15.9959
-16.1985
-16.4009
-16.6027
-16.8052
-17.0076
-17.2101
-17.413
-17.6173
-17.8222
-18.0276
-18.2339
-18.4421
-18.6514
-18.8619
-19.0734
-19.2863
-19.5001
-19.7152
-19.9305
-20.1463
-20.3616
-20.5763
-20.7893
-21.0003
-21.2081
-21.4126
-21.612
-21.8059
-21.9923
-22.1707
-22.339
-22.4963
-22.6407
-22.7706
-22.8845
-22.9817
-23.0598
-23.1177
-23.1533
-23.1657
-23.1529
-23.1142
-23.0479
-22.9534
-22.8293
-22.676
-22.492
-22.2778
-22.0324
-21.757
-21.4509
-21.1141
-20.7476
-20.3527
-19.9296
-19.4796
-19.0034
-18.502
-17.9766
-17.4291
-16.8597
-16.2697
-15.6599
-15.0324
-14.3868
-13.7245
-13.0455
-12.3506
-11.6398
-10.9135
-10.1715
-9.41444
-8.64157
-7.85321
-7.04858
-6.22793
-5.39037
-4.53544
-3.66298
-2.77379
-1.86669
-0.941733
0.00106575
0.961226
1.9387
2.93273
3.94293
4.96768
6.00673
7.05866
8.12243
9.19635
10.2793
11.3694
12.4653
13.5653
14.6677
15.7702
16.8719
17.9711
19.0664
20.1558
21.2386
22.3143
23.3813
24.4388
25.4863
26.5229
27.5486
28.5634
29.5668
30.5585
31.539
32.5087
33.4677
34.4159
35.354
36.2826
37.2018
38.112
39.0134
39.9065
40.7912
41.6679
42.5363
43.3969
44.2493
45.0931
45.9284
46.7556
47.5736
48.3829
49.1825
49.9718
50.7504
51.5182
52.2747
53.0197
53.7525
54.4732
55.1812
55.8767
56.5591
57.2276
57.8825
58.5241
59.1521
59.7671
60.3684
60.9568
61.5316
62.0936
62.6423
63.1782
63.701
64.2114
64.7089
65.1941
65.6666
66.1268
66.5742
67.009
67.4308
67.8401
68.2363
68.6201
68.9906
69.3484
69.6927
70.0241
70.342
70.6468
70.9382
71.2169
71.4826
71.7358
71.9764
72.2057
72.4233
72.63
72.8258
73.0117
73.188
73.3558
73.5151
73.6667
73.8111
73.9493
74.0813
74.208
74.3298
74.4475
74.5613
74.672
74.7794
74.8841
74.9861
75.086
75.1836
75.2792
75.3727
75.4646
75.5543
75.6422
75.7279
75.8112
75.8922
75.9717
76.0485
76.1226
76.1938
76.2626
76.3281
76.3904
76.4492
76.505
76.5568
76.6045
76.6481
76.6876
76.7229
76.7542
76.7811
76.8035
76.8215
76.8355
76.8452
76.8508
76.8524
76.851
76.8462
76.8382
76.8275
76.8148
76.8003
76.7844
76.7674
76.7503
76.7331
76.7165
76.7007
76.6862
76.6731
76.6618
76.6526
76.6455
76.6403
76.6373
76.6361
76.637
76.6389
76.6413
76.6435
76.6447
76.6442
76.6414
76.6353
76.6247
76.6088
76.5865
76.5569
76.5193
76.473
76.4178
76.3527
76.2772
76.1907
76.093
75.9841
75.8638
75.7325
75.5911
75.4397
75.2791
75.1099
74.9326
74.7483
74.5584
74.3634
74.1642
73.9618
73.7574
73.5516
73.3445
73.1375
72.9321
72.7279
72.5257
72.3255
72.1276
71.9321
71.7392
71.5488
71.3608
71.1748
70.9906
70.8079
70.6263
70.4456
70.2659
70.0866
69.9077
69.7286
69.5495
69.3701
69.1904
69.0105
68.8305
68.6504
68.471
68.2919
68.1132
67.9353
67.7583
67.5827
67.4091
67.2373
67.0677
66.9003
66.7355
66.573
66.4127
66.2547
66.099
65.9451
65.7927
65.6414
65.491
65.341
65.1909
65.0403
64.8889
64.736
64.5817
64.4251
64.2654
64.1026
63.9368
63.7673
63.5939
63.4165
63.2348
63.0491
62.8595
62.6661
62.4695
62.2695
62.0666
61.8612
61.6533
61.4438
61.233
61.0216
60.81
60.5987
60.3884
60.1794
59.9724
59.7676
59.5659
59.3673
59.1723
58.981
58.7938
58.611
58.4322
58.2578
58.0883
57.9232
57.7621
57.6052
57.4523
57.3029
57.1564
57.0124
56.8707
56.7304
56.5905
56.4507
56.3104
56.169
56.0259
55.8806
55.7326
55.5814
55.4269
55.2685
55.1063
54.9398
54.7693
54.5945
54.4153
54.2325
54.046
53.8566
53.6647
53.4711
53.2768
53.0819
52.8874
52.6937
52.5013
52.3109
52.1231
51.9381
51.7563
51.5779
51.4027
51.2309
51.0624
50.8968
50.7346
50.5747
50.4163
50.2589
50.1019
49.9445
49.7863
49.6263
49.4635
49.2975
49.1271
48.9522
48.7722
48.5869
48.3964
48.2
47.9978
47.7899
47.5764
47.3575
47.1339
46.9059
46.6743
46.4396
46.2022
45.9631
45.7229
45.4821
45.2414
45.0014
44.7635
44.5272
44.2932
44.0616
43.8325
43.6063
43.3826
43.1618
42.9439
42.7286
42.5157
42.3048
42.0955
41.8874
41.6801
41.4734
41.2674
41.0614
40.8551
40.6483
40.4411
40.233
40.0239
39.8137
39.6019
39.389
39.1751
38.9601
38.7443
38.5276
38.3095
38.0903
37.87
37.6486
37.4266
37.2034
36.9791
36.7534
36.5261
36.2973
36.0666
35.8339
35.5993
35.3621
35.1218
34.8786
34.6322
34.3823
34.129
33.872
33.6116
33.3473
33.0793
32.8075
32.5318
32.2525
31.9701
31.6846
31.3959
31.1046
30.8109
30.5153
30.2182
29.9199
29.6208
29.3213
29.0216
28.7223
28.4238
28.1265
27.8311
27.5375
27.2454
26.9556
26.6683
26.3834
26.1012
25.8217
25.5453
25.2715
25
24.7309
24.4643
24.1997
23.9371
23.676
23.4158
23.1564
22.897
22.6377
22.3783
22.1183
21.8574
21.5951
21.3311
21.0653
20.7971
20.5267
20.2539
19.9786
19.7007
19.4203
19.1376
18.8525
18.565
18.2753
17.9838
17.6906
17.3959
17.0999
16.8026
16.5044
16.2058
15.9067
15.6069
15.3069
15.0063
14.7056
14.4051
14.1045
13.8041
13.5035
13.2028
12.9021
12.6011
12.2998
11.9985
11.6969
11.3947
11.0922
10.7895
10.4868
10.1844
9.88239
9.58181
9.28216
8.98339
8.6862
8.39058
8.09713
7.80615
7.51805
7.23376
6.95301
6.67514
6.40135
6.13237
5.86767
5.60676
5.35013
5.09802
4.85009
4.60645
4.36669
4.13026
3.89704
3.66663
3.4388
3.21316
2.98939
2.76747
2.54658
2.32618
2.10597
1.8857
1.66505
1.44382
1.22169
0.998157
0.773303
0.546545
0.31822
0.0889325
-0.142008
-0.374628
-0.608906
-0.845093
-1.08276
-1.32182
-1.56213
-1.80339
-2.04557
-2.28859
-2.53213
-2.77617
-3.02032
-3.26467
-3.50861
-3.75133
-3.99334
-4.23489
-4.4754
-4.71476
-4.95278
-5.18917
-5.42414
-5.65771
-5.88977
-6.12067
-6.35028
-6.57836
-6.80542
-7.03202
-7.2581
-7.48431
-7.71055
-7.93726
-8.16474
-8.39271
-8.62217
-8.85357
-9.08709
-9.32337
-9.56244
-9.80456
-10.0499
-10.2986
-10.5506
-10.8058
-11.0642
-11.3259
-11.5904
-11.8574
-12.1268
-12.3977
-12.6701
-12.9436
-13.2176
-13.4914
-13.7647
-14.0373
-14.3084
-14.5775
-14.8443
-15.1085
-15.3696
-15.627
-15.8808
-16.1307
-16.3767
-16.6196
-16.8587
-17.0938
-17.3251
-17.5525
-17.7764
-17.9974
-18.2153
-18.4303
-18.6428
-18.8526
-19.0603
-19.2664
-19.4709
-19.6744
-19.8767
-20.0775
-20.2774
-20.4766
-20.675
-20.8728
-21.0702
-21.268
-21.4657
-21.6628
-21.8599
-22.0572
-22.2548
-22.4525
-22.6507
-22.8498
-23.0493
-23.2484
-23.4478
-23.6484
-23.8494
-24.0507
-24.2523
-24.4542
-24.6562
-24.8585
-25.0606
-25.2621
-25.4631
-25.6633
-25.8625
-26.0605
-26.2572
-26.4531
-26.6473
-26.8402
-27.0311
-27.2203
-27.4073
-27.5923
-27.7752
-27.9558
-28.1345
-28.3113
-28.4863
-28.6604
-28.8333
-29.0054
-29.1767
-29.3471
-29.5172
-29.6873
-29.8575
-30.0284
-30.1997
-30.3716
-30.5442
-30.7179
-30.8925
-31.0673
-31.243
-31.4205
-31.599
-31.778
-31.9577
-32.1377
-32.3181
-32.4993
-32.6806
-32.8615
-33.0421
-33.2223
-33.4018
-33.5807
-33.7587
-33.9359
-34.1119
-34.2864
-34.4597
-34.6321
-34.8032
-34.9736
-35.1426
-35.3104
-35.4768
-35.6423
-35.8065
-35.9697
-36.1318
-36.2926
-36.4522
-36.611
-36.7688
-36.9258
-37.0819
-37.2376
-37.3925
-37.5472
-37.7013
-37.8547
-38.0078
-38.1608
-38.3137
-38.467
-38.6203
-38.7743
-38.9287
-39.0836
-39.239
-39.396
-39.5535
-39.7118
-39.8708
-40.0307
-40.1908
-40.3512
-40.5113
-40.6716
-40.8309
-40.989
-41.1451
-41.2994
-41.4505
-41.5979
-41.7407
-41.8786
-42.0101
-42.1345
-42.2509
-42.3595
-42.4585
-42.5474
-42.6249
-42.6908
-42.7439
-42.7839
-42.8096
-42.8214
-42.8177
-42.7987
-42.7633
-42.7116
-42.6426
-42.556
-42.4513
-42.3292
-42.1882
-42.0284
-41.849
-41.6505
-41.4317
-41.1933
-40.934
-40.6534
-40.3512
-40.0277
-39.6818
-39.3138
-38.9226
-38.5087
-38.071
-37.6095
-37.1237
-36.6137
-36.079
-35.52
-34.9361
-34.3282
-33.6956
-33.0394
-32.3593
-31.6561
-30.9301
-30.1821
-29.4125
-28.6225
-27.8124
-26.9832
-26.1355
-25.2707
-24.3892
-23.4926
-22.5812
-21.6563
-20.7183
-19.7676
-18.8054
-17.8331
-16.8506
-15.8584
-14.8569
-13.8466
-12.8278
-11.8013
-10.7667
-9.72401
-8.67351
-7.61593
-6.55091
-5.47892
-4.39999
-3.3145
-2.22281
-1.12544
-0.0228369
1.08371
2.19418
3.30802
4.42407
5.5411
6.65827
7.77451
8.88839
9.99852
11.1036
12.2018
13.2923
14.3739
15.4451
16.5047
17.5514
18.5845
19.6028
20.6058
21.5926
22.5623
23.515
24.4506
25.3688
26.2697
27.1535
28.021
28.8723
29.7082
30.5292
31.3359
32.1294
32.9106
33.6801
34.4386
35.1867
35.9261
36.6564
37.3782
38.0919
38.7985
39.4976
40.1897
40.8744
41.5521
42.2221
42.8844
43.538
44.1823
44.817
45.4416
46.055
46.6569
47.2463
47.8228
48.3855
48.9336
49.4667
49.9846
50.4865
50.9727
51.4423
51.8955
52.3319
52.752
53.1557
53.5439
53.9163
54.2735
54.6158
54.9441
55.2587
55.5605
55.85
56.1287
56.3965
56.6546
56.9033
57.1438
57.3765
57.6027
57.8225
58.0373
58.2472
58.4535
58.6562
58.8565
59.0545
59.2513
59.447
59.6424
59.8377
60.0335
60.2299
60.4274
60.626
60.8261
61.0276
61.2309
61.4356
61.6419
61.8491
62.0572
62.2655
62.4741
62.6821
62.8894
63.0949
63.298
63.4977
63.6939
63.8852
64.0713
64.2513
64.4246
64.5903
64.7487
64.8985
65.0391
65.1704
65.2925
65.4048
65.5072
65.5997
65.6827
65.756
65.8204
65.8758
65.9232
65.9627
65.9949
66.0204
66.0403
66.0547
66.0642
66.0694
66.071
66.0692
66.0653
66.0587
66.0496
66.0382
66.025
66.0095
65.9912
65.9702
65.9462
65.9187
65.888
65.853
65.813
65.7675
65.7165
65.6591
65.5952
65.5243
65.4463
65.3607
65.2677
65.1669
65.0589
64.9433
64.8203
64.6901
64.5531
64.4097
64.2613
64.1077
63.9494
63.787
63.6211
63.452
63.2806
63.1068
62.931
62.7537
62.5759
62.3971
62.2173
62.0367
61.8557
61.6739
61.4918
61.3085
61.1242
60.9385
60.7518
60.5633
60.3726
60.1796
59.9843
59.7862
59.5855
59.3815
59.1736
58.962
58.747
58.5279
58.3048
58.0774
57.8459
57.6099
57.3691
57.1236
56.8735
56.6185
56.3587
56.094
55.8239
55.5488
55.2691
54.9844
54.6945
54.3995
54.0999
53.7955
53.4866
53.1729
52.8552
52.5331
52.2065
51.876
51.5418
51.2041
50.8637
50.5202
50.1741
49.8255
49.4747
49.1216
48.7666
48.4096
48.0512
47.6912
47.3295
46.9661
46.6007
46.2337
45.8658
45.4963
45.1257
44.7536
44.3802
44.0052
43.6288
43.2509
42.8718
42.4916
42.1104
41.7286
41.3468
40.9648
40.5826
40.2009
39.8197
39.4397
39.0613
38.6848
38.3106
37.9387
37.5693
37.2027
36.8392
36.4786
36.1209
35.7661
35.4136
35.0635
34.7164
34.3711
34.0271
33.6841
33.3421
33.0001
32.6573
32.3137
31.9691
31.6228
31.2746
30.924
30.5706
30.2143
29.855
29.4927
29.1273
28.7591
28.3879
28.0144
27.6388
27.2616
26.8836
26.5048
26.1259
25.7474
25.3696
24.9931
24.6184
24.246
23.8765
23.5101
23.147
22.7877
22.4325
22.0815
21.7347
21.392
21.0533
20.7187
20.3879
20.061
19.7378
19.4179
19.1013
18.7876
18.4762
18.1669
17.859
17.5527
17.248
16.9444
16.6413
16.3388
16.0363
15.7342
15.4318
15.1294
14.8271
14.5244
14.2211
13.9175
13.6133
13.3089
13.0041
12.6992
12.3943
12.0894
11.7852
11.4814
11.1777
10.8748
10.5728
10.2719
9.97209
9.6736
9.37608
9.08009
8.78544
8.4924
8.20138
7.91202
7.62404
7.33774
7.05273
6.7693
6.48777
6.20766
5.92834
5.65039
5.37362
5.09825
4.82408
4.5514
4.28028
4.01091
3.74399
3.47925
3.21624
2.95588
2.69836
2.44404
2.19298
1.94581
1.70258
1.46402
1.23085
1.00303
0.780776
0.564475
0.353739
0.149419
-0.0481114
-0.238999
-0.42342
-0.601082
-0.772265
-0.93688
-1.09566
-1.24819
-1.39461
-1.53536
-1.67104
-1.80179
-1.92766
-2.04948
-2.16774
-2.28271
-2.39541
-2.50576
-2.61429
-2.72128
-2.82733
-2.93258
-3.03685
-3.14078
-3.24507
-3.3495
-3.45432
-3.55954
-3.66526
-3.77136
-3.87774
-3.98427
-4.09089
-4.19732
-4.30292
-4.40772
-4.51186
-4.61445
-4.71567
-4.81455
-4.91041
-5.00303
-5.092
-5.1768
-5.25668
-5.33152
-5.40141
-5.46542
-5.52284
-5.57373
-5.61813
-5.65564
-5.68652
-5.71043
-5.72712
-5.73706
-5.74029
-5.73739
-5.72913
-5.71578
-5.6982
-5.67683
-5.65252
-5.62604
-5.5977
-5.5688
-5.54037
-5.51331
-5.48864
-5.46706
-5.44892
-5.4354
-5.42685
-5.42426
-5.42872
-5.44002
-5.45823
-5.48373
-5.51659
-5.55667
-5.60338
-5.65692
-5.71675
-5.78262
-5.85425
-5.93084
-6.0116
-6.09607
-6.18352
-6.27348
-6.36564
-6.45922
-6.55339
-6.64811
-6.74299
-6.83795
-6.93278
-7.02774
-7.12254
-7.2178
-7.3137
-7.4109
-7.51027
-7.61224
-7.71721
-7.82613
-7.93962
-8.05863
-8.18366
-8.31586
-8.45595
-8.60459
-8.76235
-8.92987
-9.10744
-9.29543
-9.49391
-9.70316
-9.92296
-10.1533
-10.3932
-10.6429
-10.9022
-11.1702
-11.4458
-11.7287
-12.0178
-12.3125
-12.6118
-12.9154
-13.2222
-13.5315
-13.843
-14.1558
-14.4688
-14.782
-15.0949
-15.4077
-15.7201
-16.0322
-16.3441
-16.6559
-16.9671
-17.2784
-17.5898
-17.902
-18.2151
-18.5298
-18.8461
-19.1647
-19.486
-19.8103
-20.1378
-20.4688
-20.8036
-21.1426
-21.4854
-21.8328
-22.1845
-22.541
-22.9021
-23.268
-23.6392
-24.0152
-24.3958
-24.7813
-25.1712
-25.5659
-25.9658
-26.3705
-26.7798
-27.194
-27.6127
-28.0361
-28.4634
-28.895
-29.3307
-29.7703
-30.2132
-30.6593
-31.1079
-31.5588
-32.0116
-32.4658
-32.9209
-33.3764
-33.8318
-34.2866
-34.7399
-35.1914
-35.6404
-36.0864
-36.529
-36.9678
-37.4023
-37.8325
-38.2578
-38.6782
-39.0941
-39.5052
-39.9118
-40.3142
-40.7123
-41.1066
-41.4977
-41.886
-42.2715
-42.6553
-43.0383
-43.4209
-43.8037
-44.1874
-44.5727
-44.9598
-45.3493
-45.7416
-46.137
-46.5358
-46.938
-47.3439
-47.7538
-48.1674
-48.5844
-49.0048
-49.4292
-49.8564
-50.2863
-50.7183
-51.1524
-51.5877
-52.0234
-52.4594
-52.8953
-53.3305
-53.7645
-54.1971
-54.6286
-55.058
-55.4849
-55.9092
-56.3309
-56.7497
-57.1656
-57.5784
-57.9885
-58.3958
-58.8007
-59.2031
-59.6037
-60.0021
-60.3982
-60.7925
-61.1856
-61.5775
-61.9684
-62.3587
-62.7491
-63.1392
-63.5292
-63.9194
-64.3094
-64.6998
-65.0908
-65.4824
-65.8749
-66.2683
-66.6622
-67.057
-67.4525
-67.8488
-68.2458
-68.6434
-69.0418
-69.4405
-69.8391
-70.2377
-70.6363
-71.0343
-71.4318
-71.828
-72.2224
-72.6148
-73.0046
-73.3915
-73.7757
-74.1561
-74.5322
-74.9035
-75.2697
-75.6301
-75.9846
-76.3326
-76.6741
-77.0086
-77.3366
-77.6577
-77.9723
-78.2801
-78.5815
-78.8768
-79.1674
-79.4529
-79.7338
-80.0109
-80.2855
-80.5577
-80.8287
-81.0987
-81.3692
-81.6403
-81.9131
-82.1878
-82.4654
-82.7457
-83.0297
-83.3168
-83.6073
-83.9008
-84.1979
-84.4974
-84.7996
-85.1031
-85.4082
-85.7132
-86.0176
-86.3202
-86.6211
-86.918
-87.2109
-87.4978
-87.7784
-88.0507
-88.3147
-88.5682
-88.8114
-89.0423
-89.2605
-89.4646
-89.6546
-89.8285
-89.986
-90.1257
-90.2474
-90.3496
-90.432
-90.4933
-90.5342
-90.5525
-90.5481
-90.5198
-90.4683
-90.3916
-90.2896
-90.1611
-90.0065
-89.8243
-89.6146
-89.3763
-89.1099
-88.814
-88.4891
-88.1339
-87.7494
-87.3339
-86.8877
-86.4099
-85.901
-85.3599
-84.7872
-84.182
-83.5446
-82.8742
-82.1718
-81.436
-80.6671
-79.8645
-79.0285
-78.1587
-77.256
-76.3193
-75.3497
-74.3464
-73.3102
-72.2407
-71.1384
-70.0036
-68.8372
-67.6394
-66.4116
-65.1538
-63.8674
-62.5526
-61.2109
-59.8431
-58.4509
-57.0348
-55.5963
-54.1364
-52.6568
-51.1586
-49.6435
-48.1123
-46.5668
-45.0078
-43.437
-41.8553
-40.2637
-38.6633
-37.0556
-35.4412
-33.8215
-32.1971
-30.5691
-28.9379
-27.3046
-25.6697
-24.0345
-22.3992
-20.7648
-19.1318
-17.5008
-15.873
-14.2496
-12.6311
-11.0182
-9.41207
-7.81383
-6.22458
-4.64508
-3.07671
-1.52105
0.0210491
1.54886
3.0607
4.5557
6.03226
7.48924
8.92546
10.3402
11.7321
13.1003
14.4438
15.7629
17.0559
18.322
19.5613
20.774
21.9594
23.1182
24.2495
25.3539
26.4315
27.4827
28.5076
29.5073
30.4816
31.4318
32.3577
33.2603
34.1397
34.9975
35.8331
36.6477
37.441
38.2138
38.9658
39.6982
40.4104
41.1034
41.7766
42.4304
43.0645
43.6798
44.2753
44.8522
45.4096
45.9479
46.467
46.9681
47.4504
47.9151
48.3617
48.7917
49.2047
49.602
49.9834
50.3501
50.7022
51.0417
51.3679
51.6824
51.9852
52.2779
52.5601
52.8335
53.0974
53.3526
53.5992
53.8384
54.0694
54.293
54.5086
54.7164
54.9161
55.1087
55.2927
55.4686
55.6354
55.794
55.9429
56.0824
56.2116
56.3305
56.4384
56.535
56.6201
56.6944
56.7566
56.8073
56.8455
56.8714
56.8845
56.8852
56.873
56.8483
56.8104
56.76
56.6963
56.6201
56.5307
56.4279
56.3123
56.1845
56.044
55.8917
55.7271
55.551
55.3632
55.1644
54.9548
54.7354
54.5063
54.2685
54.0223
53.7684
53.5073
53.2404
52.9675
52.6888
52.4057
52.1196
51.8304
51.539
51.2459
50.9515
50.6566
50.3624
50.0686
49.776
49.4848
49.1955
48.9083
48.6233
48.341
48.0615
47.7853
47.5127
47.2437
46.9783
46.7169
46.46
46.2075
45.9599
45.7172
45.4796
45.2473
45.0201
44.7986
44.583
44.3736
44.1702
43.9732
43.783
43.5993
43.4222
43.2517
43.0881
42.9314
42.7813
42.6377
42.5003
42.3692
42.2438
42.1242
42.0104
41.902
41.7988
41.7004
41.6068
41.5176
41.4319
41.3499
41.2712
41.196
41.124
41.0551
40.9892
40.9262
40.8654
40.8074
40.7519
40.699
40.6488
40.6015
40.5577
40.517
40.4794
40.4452
40.415
40.389
40.367
40.3497
40.3371
40.3299
40.3285
40.3331
40.3433
40.3603
40.3843
40.416
40.4559
40.5042
40.56
40.6246
40.6991
40.7829
40.8756
40.978
41.0902
41.2122
41.3441
41.4854
41.6365
41.7968
41.9658
42.1432
42.3286
42.5214
42.7205
42.9256
43.1364
43.3518
43.5706
43.7922
44.0159
44.2405
44.4652
44.6892
44.9125
45.1337
45.3519
45.5668
45.778
45.9848
46.1871
46.3845
46.5766
46.7635
46.9456
47.1223
47.2937
47.4596
47.62
47.7752
47.925
48.0694
48.2091
48.3434
48.4722
48.5952
48.7121
48.8226
48.9267
49.0235
49.1121
49.1923
49.2635
49.325
49.3767
49.4174
49.4467
49.4639
49.4691
49.4615
49.4405
49.4062
49.3592
49.2991
49.2257
49.1395
49.0412
48.9312
48.8105
48.6795
48.5401
48.3922
48.237
48.0753
47.9086
47.7373
47.5623
47.3844
47.2046
47.0233
46.8412
46.6585
46.4758
46.2928
46.1097
45.9261
45.7424
45.5573
45.3706
45.1814
44.9891
44.7929
44.5928
44.3871
44.1755
43.9568
43.731
43.4966
43.2532
43.0002
42.7371
42.4637
42.1803
41.8863
41.582
41.2671
40.9423
40.6075
40.2632
39.9096
39.5471
39.1764
38.7983
38.413
38.0219
37.6248
37.2226
36.8155
36.4042
35.989
35.5709
35.1496
34.726
34.2997
33.8706
33.439
33.0055
32.5695
32.1305
31.6885
31.2436
30.7955
30.3441
29.8889
29.4292
28.9652
28.4974
28.0249
27.5472
27.0645
26.5769
26.0841
25.5868
25.0847
24.5781
24.0669
23.5514
23.0318
22.5085
21.9818
21.4524
20.9204
20.3864
19.8505
19.3134
18.7751
18.2361
17.6966
17.1571
16.6176
16.078
15.5387
14.9995
14.4609
13.9231
13.3858
12.8496
12.3141
11.7794
11.2454
10.7125
10.1805
9.64978
9.12003
8.5913
8.06387
7.53755
7.01279
6.49011
5.9692
5.45031
4.93342
4.41835
3.90525
3.39397
2.88474
2.37773
1.87239
1.3685
0.86591
0.364183
-0.136941
-0.637731
-1.13886
-1.64084
-2.14394
-2.64896
-3.15607
-3.66613
-4.17936
-4.69557
-5.21566
-5.74035
-6.2695
-6.80302
-7.34126
-7.88409
-8.43149
-8.98305
-9.53865
-10.0983
-10.6612
-11.2271
-11.7951
-12.3647
-12.9353
-13.506
-14.0761
-14.6445
-15.2107
-15.7748
-16.3355
-16.8923
-17.4443
-17.9915
-18.5329
-19.0679
-19.5961
-20.1176
-20.6318
-21.1381
-21.6368
-22.1282
-22.612
-23.0882
-23.5569
-24.0186
-24.4733
-24.9208
-25.362
-25.7973
-26.227
-26.6518
-27.0719
-27.488
-27.9004
-28.3097
-28.7164
-29.1206
-29.5231
-29.9251
-30.3264
-30.7273
-31.1282
-31.5295
-31.9312
-32.3338
-32.7372
-33.1411
-33.5457
-33.9509
-34.3564
-34.7621
-35.1675
-35.5728
-35.9774
-36.3802
-36.7815
-37.1815
-37.5789
-37.9735
-38.3648
-38.7529
-39.1371
-39.517
-39.8925
-40.2636
-40.6301
-40.9923
-41.3497
-41.7023
-42.0503
-42.3942
-42.7338
-43.0696
-43.4016
-43.7308
-44.0568
-44.3795
-44.6996
-45.0174
-45.3331
-45.6477
-45.9608
-46.2725
-46.5831
-46.8931
-47.2024
-47.511
-47.8192
-48.1276
-48.4359
-48.7438
-49.0514
-49.3587
-49.6658
-49.9729
-50.2796
-50.5859
-50.8917
-51.1967
-51.5011
-51.8043
-52.1065
-52.4082
-52.7088
-53.0075
-53.3047
-53.6008
-53.895
-54.1879
-54.4789
-54.7672
-55.0532
-55.3365
-55.6174
-55.8961
-56.1722
-56.4459
-56.7169
-56.9849
-57.2501
-57.5127
-57.7726
-58.0297
-58.2841
-58.5359
-58.785
-59.0318
-59.2762
-59.5178
-59.7574
-59.9954
-60.2317
-60.4665
-60.7
-60.9327
-61.1648
-61.3964
-61.6281
-61.8603
-62.0934
-62.3278
-62.5638
-62.802
-63.0426
-63.2856
-63.5318
-63.7819
-64.0362
-64.2948
-64.5582
-64.8266
-65.1004
-65.38
-65.6655
-65.9571
-66.2548
-66.5589
-66.869
-67.1855
-67.508
-67.8362
-68.1699
-68.5093
-68.8536
-69.203
-69.5568
-69.9143
-70.2751
-70.6387
-71.0045
-71.372
-71.7406
-72.1099
-72.4794
-72.849
-73.2178
-73.586
-73.9529
-74.3182
-74.6816
-75.0436
-75.4035
-75.7615
-76.1175
-76.4711
-76.8227
-77.1725
-77.5204
-77.867
-78.212
-78.5559
-78.8984
-79.2399
-79.58
-79.9186
-80.2557
-80.5915
-80.9253
-81.257
-81.5857
-81.9114
-82.2332
-82.5504
-82.8623
-83.1686
-83.468
-83.7602
-84.0438
-84.3181
-84.5821
-84.8357
-85.0777
-85.3078
-85.5248
-85.729
-85.9193
-86.096
-86.2583
-86.4062
-86.5396
-86.659
-86.764
-86.8553
-86.9328
-86.9973
-87.0487
-87.0882
-87.1158
-87.1323
-87.1378
-87.133
-87.1179
-87.0934
-87.0592
-87.0158
-86.963
-86.9009
-86.8293
-86.7491
-86.659
-86.5593
-86.4491
-86.3279
-86.1952
-86.0511
-85.8941
-85.7237
-85.5393
-85.3407
-85.1268
-84.8975
-84.6515
-84.3888
-84.1085
-83.8101
-83.4933
-83.1585
-82.8051
-82.4333
-82.0427
-81.6336
-81.2059
-80.7608
-80.2979
-79.8181
-79.3215
-78.8086
-78.2803
-77.7375
-77.1806
-76.6109
-76.0287
-75.4351
-74.8309
-74.2177
-73.5957
-72.966
-72.3293
-71.6867
-71.0386
-70.3862
-69.7299
-69.0707
-68.4087
-67.7444
-67.0782
-66.4105
-65.7416
-65.0723
-64.4024
-63.7314
-63.06
-62.3883
-61.7161
-61.0435
-60.3702
-59.6963
-59.0217
-58.3468
-57.6713
-56.9951
-56.3184
-55.6407
-54.9628
-54.285
-53.6072
-52.9298
-52.2532
-51.5776
-50.9037
-50.2323
-49.5635
-48.8978
-48.2359
-47.5783
-46.9257
-46.2785
-45.6372
-45.0022
-44.3741
-43.7533
-43.1403
-42.5355
-41.9393
-41.352
-40.7739
-40.2058
-39.6474
-39.0985
-38.5598
-38.031
-37.513
-37.0059
-36.5098
-36.0244
-35.5502
-35.0872
-34.6358
-34.1956
-33.7673
-33.3509
-32.9465
-32.554
-32.1735
-31.8045
-31.4472
-31.101
-30.7664
-30.4428
-30.1298
-29.8268
-29.5335
-29.2488
-28.9725
-28.7036
-28.4416
-28.1848
-27.9331
-27.6852
-27.4406
-27.1981
-26.9574
-26.7173
-26.4778
-26.2383
-25.9986
-25.758
-25.5167
-25.2744
-25.0318
-24.7893
-24.5476
-24.3065
-24.0675
-23.8318
-23.6001
-23.3731
-23.1523
-22.9383
-22.7328
-22.5364
-22.3505
-22.1761
-22.0142
-21.8651
-21.7296
-21.6074
-21.4996
-21.4063
-21.3275
-21.2622
-21.2109
-21.1726
-21.1472
-21.1345
-21.1332
-21.1419
-21.1604
-21.1875
-21.2226
-21.2647
-21.3132
-21.3669
-21.4256
-21.4883
-21.5548
-21.6238
-21.6955
-21.7696
-21.8458
-21.9234
-22.0028
-22.084
-22.1669
-22.2518
-22.3384
-22.426
-22.5155
-22.6071
-22.7009
-22.7965
-22.8944
-22.9944
-23.0968
-23.202
-23.3098
-23.4201
-23.5335
-23.65
-23.7699
-23.8934
-24.0207
-24.1514
-24.2863
-24.4256
-24.5695
-24.718
-24.8715
-25.0294
-25.1924
-25.3603
-25.5331
-25.7102
-25.8919
-26.0772
-26.2661
-26.4583
-26.6527
-26.8482
-27.0445
-27.2405
-27.4352
-27.6273
-27.8161
-27.9997
-28.1778
-28.3499
-28.5148
-28.6718
-28.8203
-28.9593
-29.089
-29.2093
-29.3203
-29.4225
-29.5162
-29.6027
-29.6823
-29.7556
-29.8243
-29.8895
-29.9529
-30.0158
-30.0799
-30.1469
-30.218
-30.294
-30.3772
-30.4686
-30.5694
-30.6806
-30.8031
-30.9371
-31.0836
-31.2427
-31.4149
-31.6001
-31.7982
-32.0094
-32.2329
-32.4683
-32.7152
-32.9728
-33.2408
-33.5178
-33.8038
-34.0985
-34.4008
-34.7103
-35.0263
-35.348
-35.6753
-36.0077
-36.3449
-36.6863
-37.0322
-37.3822
-37.7362
-38.094
-38.4558
-38.8218
-39.1915
-39.5648
-39.942
-40.3231
-40.7082
-41.0972
-41.4899
-41.8861
-42.2861
-42.6899
-43.0976
-43.5088
-43.9234
-44.3414
-44.7629
-45.1872
-45.6146
-46.0451
-46.4782
-46.9135
-47.351
-47.7901
-48.2309
-48.673
-49.1162
-49.5596
-50.0033
-50.4467
-50.8898
-51.3318
-51.7728
-52.2114
-52.6481
-53.0825
-53.5143
-53.9429
-54.3681
-54.7897
-55.2075
-55.6215
-56.0314
-56.4367
-56.8378
-57.2345
-57.6268
-58.0144
-58.3978
-58.777
-59.1524
-59.5241
-59.8925
-60.2573
-60.6193
-60.979
-61.3366
-61.6927
-62.0476
-62.4019
-62.7561
-63.1104
-63.466
-63.8233
-64.1832
-64.546
-64.913
-65.2853
-65.6634
-66.0474
-66.439
-66.8394
-67.2492
-67.669
-68.0999
-68.5423
-68.9973
-69.4654
-69.9476
-70.4444
-70.956
-71.4827
-72.0247
-72.5815
-73.1534
-73.7399
-74.3407
-74.9555
-75.5834
-76.2229
-76.8738
-77.5346
-78.2046
-78.8825
-79.5669
-80.2569
-80.951
-81.6478
-82.3463
-83.0447
-83.7426
-84.4391
-85.1335
-85.825
-86.5133
-87.1975
-87.8777
-88.5535
-89.2254
-89.8932
-90.5575
-91.2181
-91.8763
-92.5328
-93.188
-93.8419
-94.4959
-95.1502
-95.8059
-96.4636
-97.124
-97.7868
-98.4534
-99.1244
-99.7999
-100.48
-101.164
-101.853
-102.547
-103.245
-103.948
-104.655
-105.367
-106.082
-106.801
-107.523
-108.248
-108.977
-109.709
-110.443
-111.18
-111.92
-112.664
-113.41
-114.16
-114.914
-115.672
-116.434
-117.202
-117.975
-118.755
-119.542
-120.338
-121.142
-121.956
-122.78
-123.615
-124.462
-125.321
-126.193
-127.078
-127.977
-128.891
-129.819
-130.763
-131.721
-132.694
-133.683
-134.686
-135.703
-136.736
-137.782
-138.842
-139.915
-141
-142.099
-143.208
-144.329
-145.46
-146.601
-147.751
-148.91
-150.076
-151.25
-152.43
-153.616
-154.808
-156.004
-157.205
-158.409
-159.617
-160.828
-162.04
-163.253
-164.467
-165.681
-166.893
-168.103
-169.311
-170.515
-171.715
-172.909
-174.097
-175.278
-176.451
-177.615
-178.769
-179.912
-181.043
-182.162
-183.269
-184.362
-185.442
-186.508
-187.56
-188.598
-189.622
-190.633
-191.63
-192.616
-193.59
-194.552
-195.505
-196.45
-197.387
-198.317
-199.243
-200.166
-201.087
-202.008
-202.93
-203.854
-204.782
-205.715
-206.654
-207.601
-208.556
-209.52
-210.494
-211.479
-212.475
-213.482
-214.5
-215.528
-216.567
-217.616
-218.673
-219.74
-220.814
-221.896
-222.984
-224.076
-225.172
-226.271
-227.37
-228.469
-229.568
-230.664
-231.756
-232.844
-233.926
-235.001
-236.069
-237.128
-238.179
-239.219
-240.25
-241.27
-242.279
-243.276
-244.26
-245.234
-246.195
-247.143
-248.079
-249.003
-249.915
-250.814
-251.702
-252.577
-253.44
-254.291
-255.131
-255.96
-256.777
-257.583
-258.379
-259.164
-259.939
-260.704
-261.459
-262.205
-262.941
-263.668
-264.386
-265.096
-265.797
-266.491
-267.176
-267.854
-268.525
-269.189
-269.845
-270.495
-271.138
-271.776
-272.408
-273.034
-273.655
-274.273
-274.885
-275.495
-276.1
-276.704
-277.305
-277.905
-278.503
-279.102
-279.701
-280.302
-280.905
-281.51
-282.118
-282.731
-283.349
-283.972
-284.601
-285.237
-285.88
-286.531
-287.189
-287.856
-288.53
-289.213
-289.903
-290.602
-291.309
-292.023
-292.745
-293.473
-294.206
-294.945
-295.688
-296.435
-297.185
-297.938
-298.691
-299.445
-300.199
-300.951
-301.701
-302.447
-303.19
-303.929
-304.662
-305.389
-306.109
-306.822
-307.526
-308.222
-308.909
-309.585
-310.25
-310.905
-311.547
-312.178
-312.795
-313.398
-313.986
-314.559
-315.116
-315.657
-316.181
-316.689
-317.18
-317.653
-318.109
-318.546
-318.965
-319.366
-319.749
-320.115
-320.464
-320.796
-321.112
-321.413
-321.699
-321.972
-322.232
-322.48
-322.718
-322.945
-323.164
-323.375
-323.578
-323.776
-323.968
-324.156
-324.34
-324.52
-324.698
-324.874
-325.047
-325.219
-325.389
-325.557
-325.723
-325.888
-326.051
-326.211
-326.369
-326.523
-326.675
-326.823
-326.967
-327.106
-327.241
-327.371
-327.496
-327.616
-327.731
-327.84
-327.944
-328.043
-328.135
-328.223
-328.306
-328.383
-328.454
-328.521
-328.583
-328.64
-328.692
-328.74
-328.783
-328.821
-328.855
-328.883
-328.906
-328.924
-328.935
-328.942
-328.941
-328.935
-328.922
-328.902
-328.875
-328.841
-328.798
-328.748
-328.688
-328.621
-328.545
-328.461
-328.369
-328.267
-328.156
-328.037
-327.908
-327.772
-327.626
-327.473
-327.311
-327.141
-326.963
-326.776
-326.582
-326.38
-326.171
-325.954
-325.731
-325.501
-325.264
-325.021
-324.771
-324.516
-324.255
-323.99
-323.72
-323.446
-323.168
-322.887
-322.603
-322.317
-322.028
-321.739
-321.448
-321.156
-320.864
-320.571
-320.278
-319.986
-319.693
-319.401
-319.109
-318.817
-318.525
-318.232
-317.938
-317.644
-317.348
-317.051
-316.752
-316.45
-316.146
-315.838
-315.527
-315.213
-314.894
-314.573
-314.247
-313.918
-313.584
-313.248
-312.908
-312.564
-312.218
-311.868
-311.517
-311.162
-310.806
-310.448
-310.089
-309.729
-309.367
-309.005
-308.642
-308.278
-307.914
-307.548
-307.182
-306.815
-306.448
-306.078
-305.707
-305.335
-304.962
-304.587
-304.211
-303.834
-303.456
-303.076
-302.696
-302.316
-301.935
-301.556
-301.178
-300.801
-300.425
-300.052
-299.682
-299.315
-298.953
-298.594
-298.239
-297.89
-297.546
-297.207
-296.875
-296.546
-296.224
-295.907
-295.595
-295.289
-294.987
-294.69
-294.398
-294.11
-293.825
-293.545
-293.269
-292.996
-292.726
-292.459
-292.194
-291.932
-291.672
-291.416
-291.161
-290.909
-290.659
-290.41
-290.164
-289.92
-289.678
-289.438
-289.199
-288.963
-288.728
-288.494
-288.262
-288.032
-287.803
-287.577
-287.353
-287.132
-286.913
-286.695
-286.481
-286.27
-286.062
-285.858
-285.658
-285.463
-285.271
-285.085
-284.903
-284.727
-284.555
-284.389
-284.227
-284.07
-283.918
-283.77
-283.626
-283.484
-283.345
-283.207
-283.069
-282.931
-282.792
-282.651
-282.506
-282.358
-282.206
-282.049
-281.886
-281.718
-281.544
-281.365
-281.179
-280.988
-280.792
-280.592
-280.389
-280.183
-279.976
-279.769
-279.562
-279.358
-279.157
-278.961
-278.77
-278.587
-278.412
-278.244
-278.087
-277.939
-277.801
-277.673
-277.555
-277.445
-277.344
-277.251
-277.165
-277.085
-277.01
-276.939
-276.869
-276.8
-276.731
-276.66
-276.586
-276.508
-276.425
-276.336
-276.24
-276.138
-276.027
-275.91
-275.785
-275.654
-275.516
-275.37
-275.219
-275.063
-274.903
-274.74
-274.573
-274.406
-274.237
-274.07
-273.902
-273.737
-273.573
-273.412
-273.254
-273.099
-272.947
-272.798
-272.653
-272.511
-272.371
-272.234
-272.098
-271.963
-271.829
-271.695
-271.56
-271.423
-271.285
-271.143
-270.999
-270.851
-270.698
-270.542
-270.38
-270.214
-270.043
-269.867
-269.686
-269.501
-269.311
-269.117
-268.919
-268.718
-268.514
-268.307
-268.098
-267.889
-267.678
-267.466
-267.254
-267.043
-266.831
-266.621
-266.412
-266.204
-265.998
-265.793
-265.589
-265.387
-265.187
-264.988
-264.791
-264.594
-264.399
-264.204
-264.009
-263.814
-263.62
-263.424
-263.228
-263.032
-262.834
-262.636
-262.437
-262.238
-262.037
-261.835
-261.633
-261.43
-261.226
-261.021
-260.816
-260.61
-260.404
-260.198
-259.992
-259.786
-259.58
-259.373
-259.166
-258.959
-258.751
-258.543
-258.333
-258.122
-257.91
-257.696
-257.48
-257.262
-257.041
-256.817
-256.59
-256.361
-256.127
-255.891
-255.65
-255.406
-255.159
-254.908
-254.654
-254.396
-254.135
-253.872
-253.607
-253.339
-253.07
-252.798
-252.525
-252.25
-251.974
-251.697
-251.418
-251.138
-250.857
-250.575
-250.29
-250.004
-249.715
-249.425
-249.131
-248.834
-248.533
-248.229
-247.921
-247.608
-247.291
-246.97
-246.643
-246.313
-245.978
-245.638
-245.295
-244.948
-244.598
-244.246
-243.892
-243.536
-243.18
-242.824
-242.469
-242.117
-241.766
-241.418
-241.073
-240.733
-240.397
-240.067
-239.741
-239.422
-239.108
-238.801
-238.498
-238.201
-237.91
-237.624
-237.342
-237.064
-236.79
-236.519
-236.251
-235.985
-235.72
-235.457
-235.195
-234.933
-234.671
-234.41
-234.148
-233.885
-233.623
-233.359
-233.096
-232.834
-232.571
-232.31
-232.049
-231.79
-231.533
-231.279
-231.028
-230.78
-230.535
-230.294
-230.057
-229.824
-229.595
-229.371
-229.151
-228.934
-228.721
-228.51
-228.301
-228.094
-227.887
-227.681
-227.474
-227.265
-227.053
-226.837
-226.618
-226.392
-226.159
-225.92
-225.673
-225.418
-225.153
-224.88
-224.596
-224.304
-224.002
-223.69
-223.369
-223.041
-222.704
-222.36
-222.01
-221.654
-221.294
-220.929
-220.561
-220.191
-219.82
-219.449
-219.079
-218.71
-218.343
-217.98
-217.621
-217.265
-216.913
-216.566
-216.223
-215.885
-215.552
-215.224
-214.901
-214.582
-214.267
-213.957
-213.651
-213.349
-213.05
-212.754
-212.462
-212.172
-211.885
-211.6
-211.318
-211.039
-210.761
-210.487
-210.214
-209.944
-209.676
-209.41
-209.146
-208.884
-208.623
-208.365
-208.108
-207.854
-207.6
-207.348
-207.097
-206.847
-206.598
-206.349
-206.101
-205.852
-205.604
-205.356
-205.107
-204.859
-204.61
-204.361
-204.112
-203.863
-203.613
-203.365
-203.117
-202.869
-202.623
-202.377
-202.133
-201.89
-201.649
-201.41
-201.172
-200.936
-200.702
-200.468
-200.236
-200.004
-199.774
-199.543
-199.311
-199.08
-198.846
-198.611
-198.373
-198.132
-197.887
-197.638
-197.385
-197.127
-196.864
-196.596
-196.322
-196.042
-195.757
-195.467
-195.173
-194.874
-194.572
-194.268
-193.961
-193.652
-193.342
-193.033
-192.724
-192.418
-192.115
-191.815
-191.519
-191.228
-190.943
-190.663
-190.389
-190.122
-189.861
-189.608
-189.36
-189.119
-188.883
-188.652
-188.426
-188.204
-187.985
-187.769
-187.554
-187.34
-187.127
-186.913
-186.697
-186.48
-186.261
-186.039
-185.813
-185.585
-185.353
-185.116
-184.876
-184.631
-184.383
-184.13
-183.874
-183.615
-183.353
-183.088
-182.819
-182.548
-182.275
-181.999
-181.722
-181.442
-181.16
-180.875
-180.588
-180.3
-180.009
-179.717
-179.421
-179.124
-178.825
-178.523
-178.219
-177.912
-177.604
-177.294
-176.981
-176.669
-176.355
-176.04
-175.724
-175.409
-175.095
-174.781
-174.469
-174.159
-173.851
-173.544
-173.241
-172.94
-172.642
-172.348
-172.056
-171.767
-171.48
-171.196
-170.914
-170.633
-170.354
-170.076
-169.799
-169.522
-169.245
-168.966
-168.687
-168.405
-168.121
-167.835
-167.547
-167.255
-166.961
-166.664
-166.363
-166.06
-165.753
-165.443
-165.131
-164.816
-164.498
-164.178
-163.856
-163.531
-163.205
-162.877
-162.548
-162.217
-161.885
-161.552
-161.218
-160.883
-160.547
-160.21
-159.872
-159.534
-159.195
-158.855
-158.515
-158.175
-157.833
-157.491
-157.148
-156.805
-156.461
-156.117
-155.773
-155.428
-155.082
-154.736
-154.389
-154.041
-153.693
-153.343
-152.992
-152.64
-152.286
-151.93
-151.572
-151.212
-150.85
-150.484
-150.116
-149.745
-149.37
-148.993
-148.613
-148.229
-147.843
-147.454
-147.063
-146.67
-146.274
-145.878
-145.48
-145.082
-144.684
-144.286
-143.89
-143.495
-143.102
-142.711
-142.322
-141.936
-141.553
-141.172
-140.793
-140.418
-140.044
-139.673
-139.303
-138.933
-138.565
-138.197
-137.828
-137.458
-137.087
-136.713
-136.337
-135.957
-135.575
-135.188
-134.798
-134.404
-134.006
-133.604
-133.199
-132.79
-132.379
-131.966
-131.551
-131.136
-130.72
-130.306
-129.893
-129.482
-129.074
-128.671
-128.273
-127.879
-127.49
-127.107
-126.731
-126.361
-125.997
-125.64
-125.289
-124.943
-124.603
-124.267
-123.935
-123.606
-123.28
-122.956
-122.633
-122.31
-121.986
-121.662
-121.336
-121.007
-120.676
-120.343
-120.006
-119.666
-119.323
-118.977
-118.628
-118.277
-117.925
-117.57
-117.215
-116.861
-116.507
-116.154
-115.803
-115.455
-115.109
-114.767
-114.428
-114.093
-113.762
-113.436
-113.114
-112.795
-112.48
-112.169
-111.859
-111.552
-111.246
-110.941
-110.636
-110.33
-110.022
-109.711
-109.396
-109.077
-108.753
-108.423
-108.087
-107.743
-107.391
-107.032
-106.664
-106.288
-105.903
-105.509
-105.106
-104.695
-104.275
-103.846
-103.41
-102.967
-102.516
-102.058
-101.594
-101.125
-100.651
-100.172
-99.6883
-99.2014
-98.7114
-98.2197
-97.7259
-97.2305
-96.7339
-96.2363
-95.7382
-95.2394
-94.7404
-94.2417
-93.7432
-93.2447
-92.7464
-92.2485
-91.7509
-91.2537
-90.7568
-90.2594
-89.7621
-89.2653
-88.7684
-88.2715
-87.7746
-87.2776
-86.7808
-86.2845
-85.7885
-85.2923
-84.7969
-84.3027
-83.81
-83.3189
-82.8299
-82.3438
-81.8606
-81.3804
-80.9038
-80.4315
-79.9637
-79.501
-79.0435
-78.5914
-78.1449
-77.7036
-77.2682
-76.8387
-76.4149
-75.997
-75.5846
-75.1777
-74.776
-74.3787
-73.986
-73.5976
-73.2133
-72.8331
-72.4565
-72.0828
-71.7125
-71.3452
-70.9812
-70.6213
-70.265
-69.9123
-69.5637
-69.2198
-68.881
-68.5479
-68.2209
-67.9001
-67.5864
-67.2801
-66.9818
-66.6916
-66.4101
-66.1375
-65.8738
-65.6189
-65.3727
-65.134
-64.9033
-64.6795
-64.4623
-64.2509
-64.0444
-63.8422
-63.643
-63.4457
-63.2495
-63.0534
-62.8563
-62.6567
-62.4544
-62.2487
-62.0389
-61.8246
-61.6051
-61.38
-61.1491
-60.9122
-60.6695
-60.4206
-60.1662
-59.9062
-59.6413
-59.3716
-59.0977
-58.8199
-58.5387
-58.2543
-57.9675
-57.6791
-57.389
-57.0977
-56.8057
-56.513
-56.2203
-55.9278
-55.6359
-55.3447
-55.0546
-54.7668
-54.4808
-54.196
-53.9136
-53.6343
-53.3578
-53.0842
-52.814
-52.547
-52.2837
-52.0242
-51.7686
-51.5167
-51.2687
-51.0245
-50.784
-50.5471
-50.3133
-50.0821
-49.8536
-49.6271
-49.4025
-49.1789
-48.956
-48.7341
-48.512
-48.289
-48.0648
-47.839
-47.6113
-47.3808
-47.1477
-46.9114
-46.6721
-46.4304
-46.1856
-45.9379
-45.6872
-45.4338
-45.1781
-44.92
-44.6601
-44.3989
-44.1366
-43.8736
-43.6101
-43.3461
-43.0824
-42.819
-42.5564
-42.2951
-42.0353
-41.7769
-41.5203
-41.2656
-41.0131
-40.7629
-40.5152
-40.2703
-40.0283
-39.7894
-39.5538
-39.3213
-39.0923
-38.8674
-38.6465
-38.4297
-38.2171
-38.0081
-37.8034
-37.603
-37.407
-37.2151
-37.0274
-36.8436
-36.6634
-36.4867
-36.313
-36.1413
-35.9717
-35.8031
-35.6357
-35.4686
-35.3017
-35.1342
-34.9659
-34.7971
-34.6269
-34.4549
-34.281
-34.105
-33.927
-33.7476
-33.5666
-33.3842
-33.2009
-33.0168
-32.8328
-32.6501
-32.4686
-32.2887
-32.1114
-31.9373
-31.7669
-31.6002
-31.4383
-31.2815
-31.1306
-30.986
-30.8481
-30.7169
-30.5929
-30.4765
-30.3676
-30.2669
-30.1741
-30.0891
-30.0123
-29.9432
-29.8822
-29.8295
-29.7849
-29.7482
-29.7194
-29.6985
-29.6853
-29.6795
-29.6811
-29.6894
-29.7043
-29.7257
-29.7532
-29.7859
-29.8238
-29.8666
-29.9134
-29.9629
-30.0151
-30.0689
-30.1241
-30.1798
-30.2354
-30.2902
-30.3437
-30.3953
-30.4444
-30.4907
-30.5336
-30.5731
-30.6089
-30.6406
-30.6683
-30.6917
-30.7113
-30.7274
-30.74
-30.7491
-30.7555
-30.7598
-30.7623
-30.763
-30.7629
-30.7624
-30.7622
-30.7622
-30.7637
-30.7676
-30.7741
-30.7833
-30.7961
-30.8129
-30.8343
-30.8599
-30.8911
-30.9286
-30.9725
-31.0233
-31.0813
-31.1468
-31.2201
-31.3013
-31.3908
-31.4889
-31.5956
-31.7108
-31.8344
-31.9666
-32.1071
-32.2554
-32.4115
-32.5745
-32.7443
-32.9199
-33.1012
-33.2874
-33.4778
-33.6719
-33.8689
-34.0684
-34.2694
-34.4716
-34.674
-34.8757
-35.0765
-35.276
-35.4739
-35.6698
-35.8638
-36.0564
-36.247
-36.4359
-36.6229
-36.8079
-36.9912
-37.1727
-37.353
-37.5329
-37.7121
-37.8905
-38.0686
-38.2463
-38.4239
-38.6014
-38.7787
-38.9557
-39.1325
-39.3083
-39.4836
-39.6586
-39.8326
-40.0051
-40.1764
-40.3464
-40.5148
-40.6817
-40.8469
-41.0101
-41.1715
-41.3312
-41.4892
-41.6454
-41.8002
-41.9539
-42.1063
-42.2575
-42.4076
-42.557
-42.7055
-42.8532
-42.9999
-43.1458
-43.2907
-43.4343
-43.5765
-43.717
-43.8558
-43.9924
-44.1268
-44.2586
-44.3879
-44.5149
-44.6393
-44.7608
-44.8797
-44.9966
-45.1114
-45.2244
-45.3362
-45.4472
-45.5582
-45.6705
-45.7841
-45.8992
-46.0169
-46.1378
-46.2627
-46.3921
-46.5264
-46.6657
-46.8106
-46.9611
-47.1171
-47.2784
-47.4443
-47.6142
-47.7878
-47.9644
-48.1431
-48.3235
-48.5043
-48.685
-48.8643
-49.0421
-49.2168
-49.3868
-49.5526
-49.7138
-49.8701
-50.0216
-50.168
-50.3098
-50.4474
-50.5808
-50.7113
-50.8395
-50.9665
-51.0936
-51.2217
-51.3522
-51.4859
-51.6239
-51.7673
-51.9169
-52.0738
-52.2388
-52.4123
-52.5944
-52.7855
-52.9858
-53.1947
-53.4118
-53.6367
-53.8685
-54.1062
-54.349
-54.5955
-54.8441
-55.0936
-55.3425
-55.5896
-55.8335
-56.0731
-56.3074
-56.535
-56.7552
-56.9671
-57.1701
-57.3636
-57.5473
-57.721
-57.8851
-58.0396
-58.1849
-58.3215
-58.4495
-58.5698
-58.6835
-58.7911
-58.8932
-58.9908
-59.085
-59.176
-59.2652
-59.3527
-59.4391
-59.5251
-59.6107
-59.6965
-59.783
-59.8701
-59.9578
-60.0462
-60.1351
-60.2247
-60.3152
-60.4062
-60.4975
-60.5892
-60.6815
-60.7743
-60.8668
-60.9598
-61.0543
-61.1497
-61.2459
-61.3434
-61.4424
-61.5432
-61.6466
-61.7524
-61.8606
-61.9719
-62.087
-62.2055
-62.3278
-62.4538
-62.5841
-62.7179
-62.8548
-62.9946
-63.1368
-63.2809
-63.4268
-63.5735
-63.7205
-63.867
-64.0124
-64.1557
-64.2961
-64.4329
-64.5659
-64.6941
-64.8167
-64.9338
-65.0453
-65.1507
-65.2502
-65.3436
-65.4314
-65.5134
-65.5898
-65.6612
-65.7291
-65.7935
-65.8544
-65.9132
-65.9707
-66.0275
-66.0842
-66.1415
-66.1998
-66.2598
-66.3231
-66.3891
-66.4584
-66.531
-66.6069
-66.6862
-66.7693
-66.8558
-66.945
-67.0372
-67.1323
-67.2295
-67.3281
-67.4279
-67.5284
-67.6291
-67.7294
-67.8289
-67.9278
-68.0249
-68.1199
-68.2123
-68.3021
-68.3886
-68.4713
-68.5503
-68.6259
-68.6976
-68.7657
-68.8297
-68.8891
-68.9444
-68.9961
-69.044
-69.0885
-69.1294
-69.1675
-69.2024
-69.2344
-69.2638
-69.2912
-69.3166
-69.3411
-69.364
-69.3854
-69.4058
-69.4255
-69.4448
-69.4643
-69.4835
-69.5027
-69.5217
-69.5408
-69.5595
-69.578
-69.5957
-69.6119
-69.6268
-69.6399
-69.6507
-69.659
-69.6641
-69.6658
-69.6632
-69.6555
-69.6423
-69.623
-69.5974
-69.5654
-69.5263
-69.4796
-69.4252
-69.3633
-69.2934
-69.2153
-69.1292
-69.0355
-68.9341
-68.8247
-68.7079
-68.5841
-68.4535
-68.3167
-68.1737
-68.0249
-67.8708
-67.7125
-67.5499
-67.3829
-67.2124
-67.0391
-66.8629
-66.6841
-66.5031
-66.3205
-66.1364
-65.9508
-65.7645
-65.5776
-65.3905
-65.2041
-65.018
-64.8326
-64.648
-64.4642
-64.2819
-64.1012
-63.9223
-63.7458
-63.5716
-63.3996
-63.2299
-63.063
-62.8985
-62.736
-62.5756
-62.4172
-62.2606
-62.1057
-61.9519
-61.799
-61.6468
-61.4952
-61.3436
-61.1918
-61.039
-60.8851
-60.7297
-60.5721
-60.4124
-60.2508
-60.0868
-59.9198
-59.7503
-59.5782
-59.4037
-59.2277
-59.0496
-58.8694
-58.6876
-58.5043
-58.32
-58.1348
-57.9492
-57.7637
-57.5785
-57.3937
-57.2097
-57.0265
-56.8445
-56.6634
-56.4836
-56.3053
-56.1285
-55.9532
-55.7791
-55.6055
-55.4328
-55.261
-55.0897
-54.9183
-54.7469
-54.5753
-54.403
-54.2295
-54.0545
-53.8778
-53.6991
-53.5183
-53.3351
-53.1482
-52.9583
-52.7654
-52.569
-52.3691
-52.1654
-51.9576
-51.7457
-51.5295
-51.3092
-51.0848
-50.8563
-50.6235
-50.3868
-50.1471
-49.9041
-49.6584
-49.4104
-49.1608
-48.9101
-48.6585
-48.4071
-48.1566
-47.9078
-47.6617
-47.4189
-47.1796
-46.9452
-46.7163
-46.4936
-46.2777
-46.069
-45.8679
-45.6751
-45.4907
-45.315
-45.1481
-44.9899
-44.8405
-44.6993
-44.5659
-44.4398
-44.3205
-44.2071
-44.0985
-43.9943
-43.8936
-43.7954
-43.6979
-43.6009
-43.5031
-43.4037
-43.3015
-43.196
-43.087
-42.9732
-42.8538
-42.7284
-42.5961
-42.4571
-42.3109
-42.1579
-41.9983
-41.8322
-41.6594
-41.4806
-41.2969
-41.1084
-40.9159
-40.7199
-40.5206
-40.3194
-40.117
-39.9143
-39.7123
-39.5117
-39.3127
-39.1165
-38.9244
-38.7366
-38.5534
-38.3757
-38.2039
-38.0384
-37.8793
-37.7271
-37.5824
-37.445
-37.3146
-37.1917
-37.0764
-36.9683
-36.8673
-36.7733
-36.6855
-36.604
-36.528
-36.4574
-36.3918
-36.3308
-36.2737
-36.2202
-36.1701
-36.1225
-36.0767
-36.0324
-35.989
-35.946
-35.903
-35.8596
-35.8154
-35.7701
-35.7228
-35.6737
-35.6231
-35.5702
-35.5145
-35.456
-35.3946
-35.3304
-35.2625
-35.1916
-35.1176
-35.0405
-34.9605
-34.8775
-34.7913
-34.7022
-34.6104
-34.516
-34.4193
