210468985,464709704,-867614350,-374051479
222793296,457391621,-872716493,-363925504
233042175,452850393,-875696469,-355942310
243356033,448154638,-878455404,-348098923
253594774,443347803,-880964184,-340523170
263403284,438731818,-883278249,-332977605
272784185,434240640,-885441821,-325481346
281681787,429762069,-887201669,-318990031
290411966,425214065,-888702794,-313021937
298965441,420713988,-889982443,-307363083
307533697,416288971,-891100505,-301640747
316260615,411851422,-892105809,-295676797
325297593,407510913,-892890939,-289453097
334421681,403273101,-893844712,-281950267
343599455,398882977,-894834596,-273905667
352422387,394548797,-895828641,-265597923
360658415,390245134,-896792590,-257514125
368199064,386022713,-897603591,-250288790
375166981,381843450,-898314587,-243716447
381683515,377738785,-898962742,-237525994
387997911,373637390,-899467544,-231801902
394190756,369385721,-899942575,-226252898
400235025,365195010,-900337744,-220812098
406188426,360969370,-900809202,-214886856
412116130,356858975,-901143882,-208981242
417954461,352760229,-901344378,-203406086
423432470,349009384,-901512525,-197721639
428998451,345342214,-901427915,-192477804
434455945,341843719,-901189273,-187533631
439785464,338401282,-900840936,-182967999
444899160,335086709,-900460822,-178513844
450029272,331984591,-899883603,-174322580
455052770,328806370,-899406443,-169709371
459721260,325566294,-899053926,-165183049
464134024,322384596,-898732611,-160774060
468405934,319176612,-898481076,-156124954
472557320,315716546,-898307295,-151584567
476488115,312074932,-898202235,-147385194
480084249,308557486,-898157777,-143336671
483507727,304921977,-898153003,-139590434
486856974,301406842,-898052600,-136188094
490097483,298182043,-897889039,-132697712
493296383,295316797,-897509653,-129786685
496752513,292989885,-896765880,-126989463
500169331,290755234,-895970801,-124297475
503679427,289029771,-894934736,-121581865
507237701,287804647,-893682629,-118875000
510777075,286753736,-892302658,-116563542
514433321,285796934,-890804136,-114292074
517889705,284883028,-889453011,-111463012
521183876,283538925,-888317634,-108558850
524205823,281855827,-887409229,-105789174
526696643,279834777,-886911605,-102918502
529075501,277382409,-886548814,-100452661
531058791,274718967,-886526047,-97463319
532637782,271565791,-886892198,-94301340
533980948,268001970,-887402776,-92071220
534932847,264747384,-888062665,-89503218
535284729,262314793,-888976812,-85413759
534848561,259810432,-890471882,-80030373
534057451,256732553,-892204973,-75913282
532726875,253663913,-894133721,-72822280
530941664,251037935,-896191907,-69587714
528871560,247909237,-898484683,-66952018
527085015,243883016,-900678628,-66345847
525963724,239491753,-902443128,-67256645
526052077,235307490,-903362509,-68970848
527247574,231735426,-903426676,-71065073
529965574,228143296,-902553496,-73523936
534189160,224744098,-900685011,-76151392
539665224,221864068,-897998274,-77835633
545933479,219619823,-894688268,-78600346
552590053,218020072,-891003794,-78381647
559283749,216467625,-887227734,-78008436
565964453,214828228,-883368750,-78193527
572440265,213509110,-879534483,-77888375
578196413,212568240,-876109091,-76537592
582205003,212603338,-873589603,-74832043
584068919,213484617,-872341164,-72319926
583943000,214436190,-872444642,-69206224
582158179,214379812,-873841627,-66749052
579106954,213160040,-876304811,-64879121
575374241,210916040,-879376471,-63854732
571645633,208014896,-882503257,-63722660
568312798,204897668,-885381500,-63707249
565710185,201875317,-887759407,-63427779
563922781,199195711,-889533150,-62963860
563037088,196969052,-890616474,-62480058
563120118,195219237,-890966674,-62330367
564001901,194301018,-890670308,-61456313
565371447,194217824,-889961345,-59370660
567005892,194514873,-888992974,-57282464
568771937,195001156,-887886678,-55242968
570286456,195836619,-886867369,-53001418
571474441,196804495,-886007885,-50955721
572282735,197585035,-885408669,-49250557
572869689,198312914,-884937973,-47943641
573225899,199041946,-884618244,-46545002
573494052,199539019,-884420140,-44847175
573798063,199612332,-884279328,-43385146
574058019,199710383,-884162176,-41855725
574216719,200004573,-884065488,-40287018
574547945,199987909,-883903185,-39193809
575008636,199915696,-883645524,-38611801
575586099,200067645,-883268086,-37849254
576255022,200397709,-882803575,-36745781
576912215,200857805,-882312363,-35704744
577379253,201310898,-881938597,-34827083
577588508,201901772,-881689964,-34227053
577501818,202662246,-881577071,-34103176
577119804,203841806,-881535317,-34615437
577062481,205431923,-881177393,-35277685
577123217,207284933,-880696829,-35444863
577240618,209063402,-880163352,-36328093
577702308,211904917,-879062178,-39083631
577862925,216703417,-877757773,-39709618
577656130,222696207,-876457016,-38267317
577465803,228487317,-875128590,-37393002
577016018,234482950,-873792985,-38439241
575007943,242486313,-872735171,-42674038
570445984,252837448,-872215152,-53168008
562744294,265193179,-872313345,-70501500
551589257,278447847,-872957522,-95297315
537446714,293479564,-872991917,-125802998
520579933,312166727,-871882796,-155848793
500856570,334763589,-870060155,-181639385
479054879,359362312,-867702573,-203417751
457309627,384191342,-864414924,-221296035
435353439,410326773,-860095271,-235064465
413306906,436828292,-855297744,-244429326
391858007,462412180,-849868058,-251529175
370295302,485966014,-843751293,-260237107
352233073,505635694,-834461856,-277235139
339245211,522313006,-820203558,-303791681
326038733,538418763,-806209721,-326727577
309225128,554342197,-796136067,-340840599
293085909,568799178,-785671340,-355260723
281743715,581009273,-771633289,-374903023
272596676,591989449,-755991191,-395775619
262227910,601695693,-743956226,-410669362
251566681,610550291,-733104705,-423581804
240953240,619510335,-721049760,-437215291
226354693,628886127,-710522334,-448714618
207646322,638088954,-702870331,-456749697
187621027,646772787,-695064675,-465069792
165900533,654825588,-688644741,-471561597
143931415,662290136,-683346324,-476040787
123591554,669317901,-676172536,-482131603
101933557,675801387,-669878849,-486914642
77564643,680883374,-668694442,-485953415
56101555,684593258,-670731605,-480858881
41573559,687128172,-672803365,-475797908
36005888,687967010,-675612765,-471034889
40607142,686558099,-680595445,-465510874
53310397,684332462,-686374667,-458975379
71355914,681224874,-693882910,-449765515
92327114,678894102,-700842934,-438542084
112826604,677733746,-707039320,-425398508
131799725,678054370,-710642458,-413255242
151024442,678601432,-711465966,-404263955
167282863,678418455,-714315518,-392988115
180728277,678176126,-718682638,-379249372
196709051,677599857,-718014230,-373551319
213753309,675616428,-714670647,-374191424
227470261,673396212,-713184154,-372940046
235741488,671336577,-716063662,-365933618
242456350,669558391,-718101581,-360774296
248643600,668821375,-717152743,-359816309
251326900,668678268,-716955989,-358608114
252520853,668351958,-716535263,-359218042
253721615,667774363,-715618166,-361268445
254583909,666837737,-715803811,-362023309
255816096,665220489,-716965233,-361828829
257574831,662941979,-718811380,-361100650
259401439,660395495,-721133921,-359827026
261765813,657580081,-723268220,-358986784
264256133,654803951,-725598582,-357531339
266300141,652719569,-727862922,-355216089
267659307,651211184,-730142435,-352270124
267440944,650298763,-733325151,-347476155
266710164,649576031,-737050071,-341460638
267575653,648668184,-739395503,-337411429
269894846,647700348,-739935146,-336241755
272312755,646941173,-739609486,-336470168
273300603,646923077,-739338749,-336298943
272560686,647539161,-739425004,-335523247
271281728,648164721,-739595955,-334974689
269931317,648535820,-739712845,-335089221
269029075,648618739,-739394170,-336353662
268639355,648394529,-739034844,-337885057
268305789,648208896,-738732752,-339164573
267721237,648104793,-738875752,-339511614
266804188,648094348,-739371954,-339175264
266229706,648011721,-739665672,-339144145
266476197,647573699,-740364236,-338261798
268014385,646188845,-741771943,-336606044
270552784,644070850,-742868010,-336218017
273403335,641350612,-744899004,-334614597
276498970,638757614,-748114501,-329822379
280345134,636416645,-751408184,-323551525
285027772,635151786,-752336073,-319770725
289272068,636033451,-750589156,-318308877
291009831,640069957,-746442810,-318383980
288790851,647756482,-740828533,-317971653
282920210,658028172,-734123242,-317710011
274746066,669629241,-727005654,-317010105
261089910,679348066,-723824176,-315147710
246222006,683994883,-723529484,-317729934
233943794,682832309,-724985565,-326079224
224068453,677181916,-724653928,-344986130
213932154,669047455,-723881951,-368136985
202536332,660928540,-723153907,-390028757
191169931,653298288,-720992538,-412003240
179038735,647892000,-717097447,-432289077
166873720,644454809,-713890976,-447339138
160080115,643136193,-708166864,-460620389
164681475,643406909,-698017335,-473920664
180720778,646906354,-677670300,-492478952
209165497,662725644,-648994229,-498770982
246898913,690532882,-610864864,-491905364
289407555,727647262,-562856564,-472108801
343620758,761223370,-506650036,-445747663
370964799,784431151,-476550559,-415780844
366891685,787192504,-482357170,-407394644
354649749,762353020,-505175080,-436762032
337668494,722742069,-528979313,-486545176
318352660,679957943,-559091493,-525971238
306093666,644615756,-588493234,-545319952
295083168,624574591,-608604589,-552588847
282378502,621681635,-621112766,-548556984
269813096,624603275,-626937537,-544924282
253252989,629972414,-636639292,-535359318
237973519,633051469,-649598534,-523027387
234106868,633656463,-655032097,-517230905
241398329,635410370,-649164638,-519121633
252307857,640768439,-643021453,-514977154
259915182,650565475,-641172144,-501026941
264302458,662311646,-641173948,-483016503
265386441,672490582,-642172101,-466757909
267216060,679245747,-640947170,-457520130
270676348,682553999,-638467693,-454020773
273206799,683737162,-637585407,-451960001
276205707,682673291,-638019290,-451132029
280089012,680574579,-637622148,-452466524
283656990,678162712,-637313381,-454298590
286342020,675789133,-638702496,-454200310
286473926,674879773,-640231939,-453315068
286260586,673760898,-641963148,-452665385
285655153,672991076,-643117193,-452554889
284954301,672758510,-644021082,-452056839
284732348,672659598,-644562900,-451571400
284956253,672659846,-645248023,-450449953
285437614,672663380,-646113955,-448895988
286306640,672484419,-646603196,-447905152
287427514,672204031,-646628080,-447572113
288389136,672012299,-646465478,-447476329
289072624,671941370,-646492205,-447103058
288949749,672052381,-647120175,-446106065
288705777,672080399,-647800693,-445233283
288910485,671930862,-647812829,-445308533
289161684,671753486,-647797773,-445434980
289221280,671699727,-647742787,-445557305
289023162,671871540,-647568940,-445679500
288884923,672065334,-647460620,-445634309
288326748,672569179,-647285341,-445490265
287948557,672784275,-647449256,-445171778
287768153,672940877,-647405803,-445114926
287871328,672895210,-647387098,-445144452
287707687,672938281,-647463050,-445074668
287726066,672935774,-647483304,-445037110
287822857,672873346,-647457846,-445105948
287840961,673211913,-647490321,-444534690
287578011,673707054,-647726098,-443610301
287293549,673967255,-648065096,-442903705
287255821,674020103,-648145045,-442730730
287148228,673946669,-648211004,-442815742
286649890,673958838,-648423847,-442808475
286242562,674130498,-648490000,-442713781
285748600,674345290,-648761001,-442308531
285216104,674447461,-649214285,-441831092
284979267,674342190,-649650965,-441502613
285200477,674211994,-649639687,-441575202
285288958,674027681,-649792268,-441574921
285091414,673936424,-650198053,-441244354
284799542,673865558,-650765059,-440704861
284881015,673794917,-650825783,-440670537
284985047,673719400,-650816026,-440733138
284672642,673833771,-651030643,-440443122
284674777,673812317,-651091177,-440385079
284890929,673717545,-651528222,-439743460
285342890,673425462,-652282349,-438778787
286191397,672899987,-653216894,-437640590
287045629,672311190,-654353798,-436285552
287590254,671672334,-655439338,-435280254
287607803,671287136,-656613246,-434092020
287906195,670747545,-657274871,-433726875
288241681,670122994,-658095994,-433224046
288418237,669570958,-659196537,-432285880
288273694,669072507,-660667549,-430906197
288639684,668026042,-662009621,-430224483
289387445,666965075,-662735042,-430251394
288702071,666888549,-663623990,-429459521
287535128,667500926,-664490610,-427948358
287633685,667795205,-665193844,-426327433
288306740,667996723,-665669993,-424811211
289172128,668481739,-665880446,-423126908
290104729,669403888,-665765394,-421207338
290325290,670850883,-666055657,-418284210
290206100,672513461,-666571504,-414861417
289485527,673546408,-667991467,-411390651
287464136,674315561,-670090659,-408121192
285169402,675048481,-671259054,-406596543
284439331,674909052,-671144748,-407527020
285518015,673665082,-671289342,-408591416
287461152,672290840,-671652264,-408895895
289487929,671499380,-672179431,-407899051
290847493,671363113,-672435613,-406732285
290682543,672005540,-672812747,-405162585
288760414,673187905,-673687693,-403115198
286623604,674008102,-674639506,-401675279
285661030,673791996,-675449951,-401361422
285895155,672668468,-676475056,-401352833
286661858,671292319,-677487139,-401402894
287314939,669963426,-678516707,-401417135
288069418,669022271,-678955237,-401704495
288196457,669130747,-679436612,-400617323
286659588,670103843,-681122041,-397217058
284306671,670829064,-683946624,-392806066
281788732,671199648,-686984104,-388665010
277904456,671983155,-690686344,-383511156
272949211,673561246,-694081290,-378135695
266760809,675998540,-697406525,-372035333
257209371,679538615,-702596555,-362420847
245996759,683937613,-708571460,-350089880
236403325,688303496,-712942924,-339095256
228842458,692407461,-715824651,-329726085
220495574,696615113,-719524550,-318298735
211705435,700417883,-724310961,-304779726
204854379,704077371,-727853440,-292336471
196302811,708442635,-732353441,-275959815
184066839,712577627,-740032015,-252242860
170494394,716914749,-747929918,-224693654
156729263,720418743,-756414532,-192848906
147333879,724094797,-761438861,-164656652
140724287,727847224,-764206353,-139084457
131667014,729983365,-768614252,-109278115
119202749,730748412,-774031227,-74797179
108807359,729532836,-779101037,-43194673
100392900,729442689,-781305621,-17823070
89397127,729018314,-783172135,10166816
78869541,727729854,-784618256,38526926
72234473,727266654,-784299971,60501705
69725626,727383049,-782858712,78140282
68483166,727474794,-780867549,96217732
69134932,727617586,-778507811,112428092
71730371,728005893,-775981375,125046329
75376934,728064022,-774054732,134171026
79709954,727923520,-772753468,139811239
83062693,727271724,-772403956,143143469
86235347,726564580,-772859062,142399968
88611281,725967340,-773657606,139624058
89703673,725556772,-774331534,137305510
90386533,725439091,-774781313,134920526
90395888,725685100,-774694008,134090072
89851780,726034701,-774224983,135268082
89678994,726552157,-773567254,136362939
89380815,727077969,-772950119,137252749
89274321,727661954,-772316181,137794773
88895205,728193275,-771841726,137891453
88733099,728406900,-771812821,137026641
89526151,728561081,-771894251,135220526
89959094,728693388,-771921675,134058724
90222081,729342135,-771503518,132753683
88789290,730666265,-770614658,131597212
83864648,732578219,-769590768,130182274
77979495,734899167,-769032835,123904392
69953631,738535451,-768045106,112694229
53132800,742314377,-767057425,103395737
31550428,746677820,-765635306,90558752
7186117,752214628,-762775674,72223890
21216028,-757849077,758580919,-51876311
55011111,-762296343,753541259,-31226410
95024244,-764227281,748137931,-11753982
138776314,-763491601,742082482,7525165
185040851,-759797180,735274974,27572760
230773318,-753269567,727976647,47957489
274648310,-744597885,719980383,68497451
318264028,-733546058,711260686,87445262
359421044,-721436232,701317343,106872668
394072394,-711616346,688899733,129017567
425148484,-702035428,676750629,146030176
453724377,-691634368,666217550,157638618
480495473,-679958266,657818398,164247435
504904691,-668106824,650726331,167872788
528658722,-652734440,647588372,167357139
549515872,-636504164,646691956,166147945
566098687,-624346799,644549462,164926796
580063984,-612925565,643130106,164782214
594032023,-599035070,643759707,163638814
605839865,-590062737,640949434,163976442
617145274,-580230453,638914280,164834842
627016232,-572352991,636326442,165113974
634940949,-565211661,634029067,168252445
639644477,-560247355,632454186,172907157
640939515,-560155196,630099793,176959331
640586540,-559560293,630221630,179664783
640392536,-557709970,632573731,177834158
637486640,-557839758,636101141,175264596
631919447,-559664990,641155813,171107051
621753281,-564174823,648626225,165314811
606965223,-572638239,656986246,158012680
589642937,-582488091,666720569,146403222
570520638,-593308037,677257891,129363938
549993352,-604577727,687929746,108011648
528575373,-615723177,698109026,84013280
503640182,-629195607,707007895,59336303
473653563,-646434835,713651879,37370703
440473511,-664431259,719109635,17707842
404100500,-683269342,723024044,1878625
369025476,-698143407,727382085,-15882137
333983597,-711232375,731078048,-32399384
297496014,-723036627,734490730,-46464684
261398309,-732850138,737470023,-60505015
226684550,-740379667,740258785,-73416801
192561931,-746410416,742423642,-86718077
160652729,-750276048,744416044,-100212755
129188152,-751898260,747081613,-112914932
96810416,-752604435,749361882,-124870224
62822716,-752393566,751090076,-136903003
29781071,-750203856,752521174,-151461714
6405620,746755566,-753865132,164085228
43764211,743042701,-753642825,175830138
76002136,737609182,-753144540,189344017
104042977,730685938,-753562916,200842113
132129993,723425947,-754446466,207192167
157847142,716623585,-754584484,212268049
180682047,709721158,-754187517,218566769
201588812,702171470,-753756786,226029625
220885531,694556898,-753513205,232246896
235374027,686648131,-754795260,237316140
242879533,679122212,-758541222,239456183
243640316,673110783,-765076174,234821667
236383979,669626786,-773754341,223491034
219359615,669219102,-783553076,207346472
191742045,671437939,-793253740,189937067
154915342,675004482,-802267952,172213569
112436128,678953481,-810141318,151567401
66405802,681909901,-816746461,128202498
17712096,683122915,-821724872,103533112
33570400,-682058915,825038599,-76821089
84283119,-679314921,825754406,-49787113
134560059,-675677164,823242254,-23394482
184665073,-670674318,817925966,3642496
234449914,-663751445,810253574,29627810
283226492,-655538882,799923274,55639831
330188989,-646062802,787258333,81997915
372259976,-636653642,772982382,107304529
410628383,-626659579,758289379,128844155
444953381,-616318735,743929608,147144995
474252410,-606483205,730394936,163423672
498875411,-597129858,718123315,178268513
520465586,-587402157,707559242,190667629
539831947,-575407059,699962302,201152842
555512504,-563953641,693165593,214014059
568769793,-552558644,687068016,228120395
579866333,-541284213,682147954,241582469
589468099,-530419100,677626121,254808107
597554654,-521203235,673277095,266260608
604380138,-514306033,669101385,274659593
607382262,-511744815,665587209,281279053
606067002,-515073450,664327769,281018045
602079577,-518401102,667859734,275035792
591461449,-527246923,674880989,263895888
573879541,-540532416,685393717,248281966
551804064,-555879559,698399782,227306377
524799095,-573572547,712382608,202564810
492296433,-593107573,726375919,176542187
457843387,-611347970,739777402,149274010
421317101,-627920149,752435425,122353905
382465877,-644409198,763078051,95341646
342536227,-658452487,773033985,66702256
299273526,-671833499,781263040,40305942
254534438,-682415117,788858016,12098147
205323326,-691410820,795276122,-15836762
152589036,-696996188,801172047,-44245254
99040819,-700252085,804488014,-74553534
44580017,-699760156,807088608,-99387276
6085406,698168910,-806772995,120673038
48320294,697207416,-803385126,138060899
79895833,699749375,-796022787,152435657
104458488,705048356,-787083594,159424457
130326303,709252506,-781447543,149121099
157974305,708910709,-781880639,118629251
179370996,702202404,-788923494,72519346
190184541,689760356,-800376793,19456824
188209941,673246970,-814453606,-30039385
177021870,651917526,-831299229,-74363270
158953954,625303256,-851236844,-109756508
136138614,593706102,-873337973,-138497753
114075348,557610870,-895818386,-162750630
91654901,519504386,-917737364,-179983700
71810882,478759865,-940273018,-185581106
56378876,435289581,-963017694,-181280980
44612317,389772086,-984480374,-172648084
34613717,342609482,-1003571562,-164882539
24087083,296317955,-1019667187,-157530363
14118750,248834325,-1033315707,-151862747
3387794,203221827,-1043595257,-150066175
5185835,-159118591,1051565531,147600206
11611336,-118179822,1056987103,146964202
17285621,-81365740,1060407857,146756619
19925603,-49056621,1062826983,143236602
19693527,-22236060,1064168134,139947842
19019238,-314670,1064473526,139484003
17610932,15347465,1064267052,140397500
14963351,24874179,1064283280,139211996
13380363,28533525,1063631944,143580629
11302971,23908708,1062652587,151629807
6778676,12336057,1062768408,152468643
2391607,-8393737,1062386254,155501698
3503700,38791564,-1062044699,-153184535
8413609,74032884,-1060907928,-147797886
14144057,115211707,-1057367789,-146359393
19280774,159411840,-1052237656,-141186174
24130549,205332534,-1044847819,-135907350
29793796,253381912,-1035417829,-125464578
35236526,301040202,-1023870442,-112889361
41021597,349959172,-1009568219,-97669435
46900655,397422278,-993118569,-80578381
51439715,443883450,-974202967,-64587324
59105145,483928720,-955436918,-48799318
69549456,521566903,-934849621,-45918116
82854202,555465260,-914110748,-43778538
99424480,585026059,-894000497,-39288004
117311508,610620622,-874851151,-30617168
134063643,631162644,-858041366,-18630778
149417621,647386969,-843445203,-9282178
158117202,658000212,-833636086,2579472
157972849,663985566,-828842039,10446516
144049967,665068045,-830496036,11486613
115948603,662806973,-836750299,3638398
75221651,658537391,-844675191,-10748295
23966425,652411322,-852020370,-27710499
35087157,-644213938,857097247,45421055
95238046,-634218277,858610221,66381843
151634983,-623135984,856393952,90659853
213007342,-610193946,849712084,114900008
272383173,-594910941,839530888,141413400
327198805,-580994096,824051087,171019651
379460131,-568494520,804207820,197472017
425804469,-555948172,781952793,226015876
465551476,-545046277,758703823,251944053
498380437,-534890089,737200381,273800353
524196789,-525272105,719063170,291849344
542521619,-517670766,704546123,306958489
551885083,-514099953,694358320,319234777
553360588,-514175050,690973304,323869727
546412807,-517840495,695003345,321194521
527599994,-527324320,706172322,312744784
497488230,-543220483,723080553,295792127
457159644,-562110789,745185757,269545669
404973906,-583417576,769768172,236640090
346708917,-601980928,794365515,198284673
289664979,-613806705,817329406,155658836
230255093,-621692560,836711610,115394522
172187919,-626045758,851542453,78835152
120081094,-626806642,862085407,49236320
67829036,-626716358,868907462,23391390
19144109,-626414677,871845984,-6651282
28533060,623361800,-873294557,29732943
75144306,620630012,-871552040,49902511
117368941,615594359,-869029940,70544761
159568832,609131498,-865487770,85724840
199297090,605126301,-858353753,101257940
231982450,600939323,-850831420,118588789
259170564,596624311,-844748392,127244184
279944323,592793666,-841111339,125212730
288718203,591968519,-839513889,119804028
287543758,592446887,-841503092,105448206
279581525,591144067,-848075346,77916397
261296251,585601309,-859937496,47160989
236568392,573332149,-876389569,13726206
210964332,554307151,-894844664,-20300865
183422308,529801743,-914397022,-49655579
152899743,499751852,-934835145,-76644505
121770860,462300026,-956299004,-99318993
91048237,415719160,-978792971,-117360452
61585935,360129464,-1000393533,-136558510
36136670,298824138,-1018289017,-159396549
15854430,239347897,-1030607698,-182292351
494785,-182851158,1039630183,196610778
11870244,-133434674,1044868106,207909675
16189600,-99065245,1046408184,218804455
12938048,-76818538,1048547807,217716608
5923473,-71068914,1050027615,212785421
5864739,84273913,-1050593261,-205033703
20609066,114903993,-1049310224,-195555356
36835263,158658783,-1044774730,-186648930
58233269,213282579,-1034961037,-181374136
84747681,275597758,-1020182711,-170330401
114751295,341274944,-999782754,-154011145
144136366,403422901,-976618830,-124947340
172734100,457303700,-950982540,-97928381
197476842,501899077,-925517073,-73750578
213991824,536190269,-903746342,-53585675
222317324,559801391,-887833313,-43236705
220714906,577719180,-876572896,-45452789
204007930,592393023,-870638565,-48592853
177133244,605632687,-866962704,-55946741
142259968,617090730,-864566011,-66394668
98592972,625417054,-863946445,-75171990
51289518,630519135,-863303290,-86278279
1436938,633588065,-861302748,-98199704
49708000,-632228250,859884605,106472716
97419612,-629834480,855877606,119218054
141902208,-625295173,850421579,136287764
186931582,-618468279,844101892,151548872
230376727,-608862964,837099341,168518294
271276609,-598254200,827583252,191123979
310432984,-587689732,814815399,217366284
349018249,-578495369,798699038,241931223
386364592,-567391828,781652120,265951657
424706863,-554278091,764903406,283273515
458802781,-541189866,748224217,299490252
489213287,-532738251,730197403,310795025
512763045,-526316515,713956275,321319069
530957178,-519491408,704563330,323612646
540152482,-514266673,702267705,321724510
539161683,-518736433,701817685,317134871
528498927,-526265744,708158240,308490769
508344951,-538555901,720364726,292470716
478041128,-553345019,738067925,271040729
436041292,-570918321,758811525,247072876
384528219,-590366045,780384402,218008360
326618966,-605582852,803669904,183371824
262537168,-619687815,823147664,149701604
196675161,-632222183,837331751,115804057
130590766,-639800600,849055059,75021305
64335011,-643861291,855899361,40759719
92681,644118888,-858950432,-15378929
64200158,640338094,-859484874,7254504
127443870,631980406,-858235184,26683620
186565774,622370842,-853626023,45736702
239720093,611700231,-846661223,66658503
283815705,600749551,-839216764,84766458
318855918,592542899,-830914845,98613743
342356621,585925986,-825198558,107011680
355440620,580604931,-823444795,106864659
358174612,576439368,-826005743,100322581
352484961,571218396,-833420740,88290826
341342222,562677500,-845466142,70625706
326419649,550343860,-860936594,47760830
307527304,533427274,-879438275,19782694
287270639,511388589,-899348880,-7098363
262927022,485334051,-920456446,-31647986
235616165,453988105,-942560377,-53676679
209736732,416309512,-964154858,-77613039
186025180,373829531,-983736744,-104065375
162476879,330872982,-1000514096,-126559272
138373634,284818297,-1016259534,-140958217
116430105,240457540,-1027917678,-157895280
96352318,197288934,-1036810951,-172446693
79528580,159085374,-1042847005,-183735132
67505539,126882220,-1047187579,-188848047
61145189,100752446,-1049824901,-192092146
60768628,82180505,-1050671722,-196377128
65841713,72770046,-1051088174,-196225742
72419998,75840577,-1051174932,-192240264
79391592,92249877,-1050396562,-186481686
86912099,121967779,-1048010976,-179345051
94130075,161161302,-1042468983,-177049398
103511836,209007503,-1033115503,-176621134
114299729,260941817,-1021150009,-170349701
127393830,316936162,-1004584767,-164476525
141319980,375825025,-984143811,-152206040
153703772,433007122,-961002150,-135189381
164652439,482351652,-937581721,-118694598
176406973,522983008,-914755463,-107300058
187238619,551987235,-896354455,-98600108
200389952,574161786,-879996196,-93329053
214827126,592474441,-864521636,-91362040
224209526,604841327,-854040380,-86214090
227921793,611619142,-848055548,-87730246
221873127,614796484,-846636382,-94470078
200608645,617592958,-848799750,-103901881
164158114,624248082,-849957752,-117727179
112222195,634068518,-849203647,-130911386
49352639,642728172,-846470415,-144478767
16094815,-648451423,840779211,158945050
83888395,-649875259,832838681,172991666
153569631,-646826513,821088099,191748513
217478986,-640450060,805459163,216063104
274608158,-631547394,788001088,240237167
325577336,-619386699,771230778,261693743
368914930,-605919959,754805839,282757598
403425834,-595277011,738006132,301929347
427774420,-585222483,725597357,317731312
440572669,-578200403,718052347,329998244
440884336,-575904443,716351703,337213814
430279101,-577218511,723156776,334131303
405285759,-584301319,737035253,322546063
363931999,-597344590,756099854,303257190
309010497,-611374021,780365887,273283464
239340317,-625284520,805663216,235719620
162827203,-634893098,828706077,191221542
82696263,-639010279,846984810,142707443
2523340,-638660339,857565262,98030258
72570849,635776670,-859933331,-62910016
142259183,628039764,-858656469,-30966984
205554755,614563107,-856139591,-2435915
267566062,597525530,-850883058,16998311
323735210,580707931,-842594985,30469304
364889671,569028193,-833027696,45241821
392590780,561851772,-824392202,59098405
407890297,560345058,-817636456,63490537
409835083,561985228,-815446275,64627219
404306468,563661285,-817705562,55689802
390865506,564822372,-824146208,43629921
370352501,563991017,-834605525,33286006
347827345,558720103,-848180299,18964752
325111566,547608677,-864488429,2818169
301292191,532611071,-882205358,-13546001
277003279,512269554,-901606871,-29581997
253934626,485026694,-922433532,-48002051
232211141,453895536,-942532894,-67896342
212353222,421910741,-960519018,-84982871
194817816,388244852,-976976269,-98745652
178018450,354610286,-991806547,-108638189
163738709,321728356,-1004392907,-117459781
152280776,289573213,-1014784080,-126856601
143236820,257589571,-1023698418,-134513501
137159111,226563513,-1031084263,-140153745
133610063,194615211,-1037353024,-145232226
130595910,164440409,-1041669796,-154108864
128347088,140069766,-1043893321,-164667335
126509817,123275738,-1044564861,-174940318
125648164,115869109,-1044307695,-182016022
127928338,121234979,-1042759790,-185767145
132440520,138705212,-1040843707,-181069747
137537998,166947778,-1037345193,-173344013
144463558,204500839,-1030863211,-165988652
151240800,249840357,-1021554172,-155095246
158137908,300638436,-1008879779,-140326876
164306314,354981272,-992354579,-123067244
169229961,409855429,-972057378,-106797436
172499930,461748912,-949481799,-91856039
175005586,510868546,-924699753,-78982562
175838819,553534346,-900666268,-66349201
177252933,590238168,-877351213,-58109012
180195658,620322617,-856240097,-50023856
184915655,642347969,-839160492,-43890324
191350730,654864812,-827828834,-46453231
200201158,658183427,-822704304,-52850793
207985169,654462350,-823526585,-56095100
212112456,644167497,-830871091,-51295353
219155054,628643815,-840836892,-51886462
231462477,609272437,-851067321,-61789541
243576237,587012459,-862368927,-72995341
256038149,562268093,-874019628,-85488638
274785698,535584222,-882505877,-108383961
296930969,507790094,-887820114,-136667909
315001852,481678641,-893036822,-155444167
339194125,458021201,-892997067,-175047461
363008326,441497991,-885591389,-204818731
365386470,446899229,-878017778,-220858230
344375776,472402251,-869650271,-234246305
309158052,508932010,-853174747,-265372901
260345222,552105522,-827437533,-309302641
202443259,593230808,-797995727,-351024586
143407394,628437921,-764770384,-390573763
91432838,655428779,-730284576,-426214731
59559791,672756566,-694647963,-462857370
56744098,684146607,-653984302,-503934061
81537204,688724324,-614671138,-542320348
127504668,683098107,-583155563,-574430126
182086354,664494877,-572734416,-591766268
237987653,635412216,-590309944,-586573801
299220931,598158820,-622781219,-563682371
364794952,555106100,-653307140,-533751920
431146036,505366994,-682389570,-495966151
494519578,456559958,-689033799,-474507440
535339388,418796118,-695343909,-455448102
547870044,404586070,-708275649,-432914861
538813737,414126701,-712263486,-428683472
509305999,443851233,-708772585,-440643180
457236315,489864719,-706673307,-452217332
385105172,542869721,-706143005,-459641154
297284892,593298220,-704747554,-464619464
207755638,631427262,-698636641,-472192278
127864449,657647110,-685578178,-483791788
63192966,676364495,-670928383,-491237550
18081463,684310670,-664950364,-492091950
4642774,-683812082,668798839,487861764
2067242,674674430,-681922576,-482403613
37337014,657346147,-700792778,-477821073
97168837,627173747,-726447941,-471599600
175331347,583683841,-753490561,-462326262
261481922,529812623,-776601878,-448036399
340896402,473605090,-792446590,-429462140
406972247,415297230,-797004785,-423800278
435146750,387031847,-812522017,-391894797
439955996,383600823,-819697075,-374571917
427518443,398249566,-815938433,-381825589
391016089,432257676,-818619956,-378208593
336726067,473189236,-821836377,-374451453
271454282,514358574,-815126443,-387605740
195118640,552703230,-804198480,-403279068
116859775,582470461,-789992704,-419410252
38110870,607348652,-767554086,-439837926
30991512,-626737684,739896688,460123678
74990407,-640938045,706741941,486838976
92916700,-654337971,672108209,514198753
80388741,-661344175,645341350,540941335
49395819,-661016613,632522792,559869151
7554355,-645793862,649252131,560612519
46027066,616745172,-687184696,-546082037
118781706,578940780,-723889158,-528795292
205558905,535338985,-750157678,-511216851
285724195,493712443,-776423939,-474022236
345616200,461000438,-807758897,-410457177
381550806,444580694,-838314406,-326982340
399659600,443235046,-850639133,-270461587
395289930,460867454,-853188513,-237349501
373307022,486131803,-852468660,-224802927
338847683,513799459,-851662064,-220874487
295452324,541595728,-851797979,-216202833
250655927,564488451,-853517958,-207251046
213646991,581851561,-852961459,-202933163
187878109,590164798,-853902223,-200449056
177926552,591585105,-854641796,-202183362
186138700,585318991,-856757719,-204063097
206244531,572544969,-862416385,-197015055
229094310,558619059,-870869503,-173112834
254991930,547077231,-875670559,-147666974
277586416,540744492,-875352610,-131224129
295548087,537090817,-872142140,-128352405
307633806,532933864,-870358746,-129380476
315442377,528674527,-870245765,-128800292
318650423,524657530,-871956774,-125730158
321445125,518621221,-874983305,-122596619
326824076,510437692,-877504930,-124681894
330667857,503759234,-879665077,-126475395
330463534,501743488,-880687171,-127901114
327805934,503352535,-880679333,-128470045
320860862,506780107,-881675710,-125661300
312722892,508600227,-884071110,-121933480
305630424,508601740,-886908817,-119281440
299612972,506431794,-890458348,-117321033
296289386,501714120,-894254038,-117161076
295145289,495591082,-898170656,-116145099
297329970,489370772,-901534717,-110759812
303744701,483958829,-903950937,-96524031
308841822,482046523,-905540273,-71869186
306919626,484554890,-906681934,-43076685
290645423,492383093,-908630907,-19887207
257784445,503340751,-912736047,-5348181
208713449,519529537,-916214125,-960860
144874550,535223905,-919491628,-1840364
75368223,549379402,-919448738,-6116902
7407811,558588365,-916883811,-13028673
48111196,-562843289,912830897,23537259
83981565,-564404307,908873247,35578006
97855895,-565473088,906418527,44624093
91972056,-566388030,906527736,43297330
69071163,-566267255,909133734,31111206
34825954,-564990479,912379269,7646579
3968717,561842457,-914679739,24490485
44795665,556683291,-915355391,56063139
87951410,549482308,-914990780,77763241
125261327,543867532,-912290809,95732406
150044218,537848623,-910394983,110941599
161079056,534012420,-910197227,115527456
158914541,533106675,-911188243,114893873
146388283,534323188,-913218284,109649756
124581818,535964845,-916316536,102501551
94936826,538594569,-919287230,93463266
60669421,541126443,-921808866,81800454
25788976,543166486,-923336944,68377564
8442451,-543776457,924212446,-54669469
38688670,-543793575,924162481,-40458999
62649750,-543136921,923655283,-29320934
78222599,-541173991,923861857,-20311820
82330695,-538004635,925488314,-12866128
72578188,-534242546,928515013,-9934083
47720345,-527769437,933756404,-14236374
6256628,-518550470,939834250,-26445288
48050310,506564575,-944358672,46815636
112337292,492622194,-945203867,64920679
179050639,479183565,-940656256,80070554
232049834,470258672,-931825056,98148135
265933831,466250768,-922717428,115773352
283362958,467940109,-915677354,123263855
286266539,474282491,-911514190,123170509
275715112,482530347,-911109846,118091971
253199958,491494408,-914403333,105409100
218097579,502105816,-919646586,86570143
171164494,514123480,-924749742,64336433
117674703,524766603,-928488549,40039679
62905172,532742749,-929995937,16036394
10842494,537215675,-929601900,-6600958
31689688,-538492656,928039067,26199592
59445110,-537190262,926851528,41960099
70231678,-535300303,926761925,50544795
60812556,-532772817,928848307,51159423
30584639,-528599217,933195378,41416669
16715163,520905695,-938574159,-19439723
78756685,508949545,-942120989,9853034
151108835,493189170,-941153738,32888497
218824100,477128777,-935291635,51133431
268976019,462825433,-927625499,76655557
298685223,452947801,-922042742,91564320
308045672,451041501,-919740739,93096962
298718695,456090245,-921009916,86087049
271968831,467507240,-924363861,77090074
230610459,481964815,-929223666,63193269
177840560,498366062,-933330427,42659385
118270099,513511567,-935365501,18191320
55695680,524613418,-935189866,-4479721
1239124,-530862163,932977816,25646244
43644945,-533280618,929863497,44522856
68691581,-532165828,928275895,57500928
75030085,-528268654,929688652,62475783
61151783,-523775604,933492302,58593554
28706900,-517968359,939125132,43013738
18898789,511192115,-943932144,-15461902
77141077,503888102,-944891285,15746107
138976966,493600838,-942503216,40652161
193087021,482970319,-936902810,67761946
231618941,472423516,-932263042,83520225
254573162,467693754,-927787116,92669476
264352456,468557674,-924119627,97446817
265305160,473685262,-921056762,99052428
260649595,480628328,-918513764,101547292
252486464,487152891,-917070228,104097786
243838381,493082392,-915906731,106999790
236188629,499163861,-914174452,110710794
229684326,504851390,-912221402,114645243
224372262,509047225,-911026096,116104540
220444006,512078651,-910394233,115251143
217428192,514233964,-910054017,114066743
215101957,515437407,-910079816,112833856
213907504,515760814,-910380683,111187941
214032489,514819504,-911058092,109752007
215459348,513030231,-911909629,108256087
217394835,510932547,-912733572,107359077
218977731,508804899,-913565553,107169068
219964894,506749897,-914573480,106282832
220548986,504854402,-915762902,103822198
220697684,503415821,-916843156,100916771
219846186,502928341,-917538846,98863214
218225772,503651341,-917692023,97340687
216387436,504937008,-917608021,95560684
214865026,505535423,-917914269,92853045
214124905,505178380,-918756591,88051296
214147633,505028036,-919417839,81729343
213702731,506785806,-919142197,74821813
209476823,511229731,-918015390,70234251
200546678,517622443,-916843825,64551854
189705286,526435974,-914707614,55754125
176696084,536631878,-911876277,46988104
162160164,547525685,-908424396,40077198
147125044,558381167,-904601193,34392958
132483447,568433656,-900753463,29933551
119063347,577227625,-897151409,25942888
106958328,585349327,-893527504,21357823
95874600,593404361,-889577470,15898291
85690415,601439898,-885295946,9989701
77191974,609785434,-880401827,4146139
69101917,618226330,-875181397,363659
62474784,626169277,-870016815,-1089136
57676222,633078953,-865335115,-1060157
55323679,638319083,-861631303,-985674
55612682,641984906,-858884296,-1335670
57078445,644316254,-857041034,-875105
58640953,646254810,-855474987,-75768
59712448,648254010,-853886723,359153
60106370,650225111,-852359052,281902
59813109,651467851,-851429845,869386
59945286,651749240,-851204720,1232827
60223668,651692099,-851229327,809752
60116936,651403691,-851457972,111654
59772173,651034535,-851763948,-1000953
59429555,650711046,-852032797,-2208671
58672019,650537803,-852213072,-3541346
58160608,650784405,-852044756,-6183229
57963485,651434793,-851529961,-9548088
57684302,652141852,-850976796,-11979649
57807964,652806021,-850436888,-13458488
58013141,653601304,-849802169,-14056361
57839163,654299811,-849267891,-14557903
57828051,654813015,-848857300,-15446986
57799149,654963395,-848739640,-15643732
57806302,654748574,-848900499,-15879961
58185647,654798210,-848798726,-17775072
57312091,654743538,-848890837,-18222483
56456220,654837283,-848884903,-17796661
56645654,655417132,-848429223,-17577903
56742196,656053036,-847951697,-16556996
56721506,656709939,-847460235,-15727538
56624511,657426011,-846919163,-15300695
56613529,658054555,-846431115,-15328217
56397474,658437149,-846153143,-15039086
56506865,658500355,-846098127,-14956238
56713648,658524256,-846064348,-15032041
56657834,658359861,-846192190,-15245897
56478843,658067400,-846413216,-16235059
56142833,657819241,-846605999,-17365927
55490804,657512814,-846875121,-17933750
54730793,657166324,-847176543,-18717294
54328805,657058177,-847248650,-20350475
54214349,656975403,-847286640,-21701619
54050870,656986317,-847278020,-22111734
54234136,657371473,-846961481,-22341433
54561686,657888858,-846551746,-21837815
54592151,658450813,-846125215,-21349917
54596162,659154007,-845565663,-21804524
54388235,659801654,-845061704,-22268710
54346170,660387494,-844604718,-22342893
54775252,661074646,-844021641,-22998269
55106297,661923631,-843333125,-23045453
55353160,662872220,-842594581,-22186741
56311849,664245413,-841461448,-21705001
57347250,665728906,-840234355,-21072103
58054330,667225040,-839010444,-20576959
58683393,668636846,-837828244,-21127262
59323266,669701730,-836892995,-22626553
59431136,670555765,-836168277,-23812225
59393146,671217315,-835613550,-24723830
59620029,672078002,-834885871,-25371178
59898830,672829208,-834256315,-25512597
60054738,673653922,-833596487,-24944408
60386738,674144477,-833206409,-23900849
60859513,674426658,-832985107,-22408026
60686674,674363609,-833099451,-20436730
59727201,673820606,-833641375,-19026689
57605763,672302347,-835042499,-17794579
55351552,669446537,-837469920,-18523088
52856034,665002254,-841146761,-19283966
50969609,659632671,-845461604,-20075372
49660292,653338194,-850411440,-20121336
45871865,646196051,-856087579,-19025813
36963937,636878576,-863540891,-15426647
26053729,624639738,-872867183,-13068575
14325272,610925911,-882783241,-13400460
2925541,596610125,-892630134,-13444326
8670550,-579982408,903524355,10510648
18116199,-563135031,913975871,10970612
25300545,-548094544,922846424,15107535
32111009,-534142605,930642849,22043832
38793794,-521790318,937153064,29925327
45858983,-510352876,942928840,35264520
52350320,-500482147,947727614,38870804
57805011,-493198270,951054883,42780243
60129009,-489217381,952521972,51713179
60543144,-490148698,951501951,60451003
65431654,-491196140,950911165,55986620
75004223,-489371099,951703400,45523942
84203820,-488170455,951677072,42796905
90461366,-491029306,949264886,50243274
96982913,-494564082,946483296,55601666
103878801,-495679723,945111144,56544105
95783681,-503702432,940495151,74160120
84294317,-514422932,935311746,79855837
85570520,-511398620,938526337,56911829
89193249,-504876091,942240997,47414205
88960919,-505438287,941334390,58559075
92103977,-506501552,939907973,66839373
95339288,-504247827,940847623,66115274
86183203,-506676914,939694181,75811032
78364501,-510249949,938929205,69550631
79305885,-506343167,942094539,52023754
80927408,-504808850,942857413,50597867
81125195,-507094549,941186251,57997691
82934522,-508537241,940085281,60604435
83797555,-508842118,939924628,59336849
80986821,-510805718,939141266,58769072
77230023,-512065591,938922867,56299604
74472832,-512601591,938944062,54762731
73205238,-513237643,938660428,55373475
73359604,-513365712,938502608,56642515
75243022,-512706314,938712951,56658744
77149989,-511804555,939112588,55614478
78049928,-511301592,939375963,54525889
77371009,-511362665,939523221,52340258
75772509,-512040108,939515661,48013191
73110520,-513539070,939150526,43014763
69661496,-515546879,938528088,38015215
65696005,-517006975,938217213,32523604
61563091,-518228716,937958590,28357973
58409655,-519268346,937666952,25512393
56405786,-520311491,937237031,24547053
55042082,-521541054,936621187,25050003
54059082,-523258265,935690739,26129195
53041495,-525453192,934469300,27823931
51658236,-528077148,933042662,28615538
51017744,-530972578,931439365,28417011
51154488,-533902245,929740812,28898778
51637363,-536874281,927944392,30664312
51161698,-539557076,926333461,32991932
48936551,-542303043,924752949,35582247
45266947,-545502772,922994443,37152848
40967112,-549060824,921125951,36088643
35954290,-553335028,918853391,34023362
31160334,-557997416,916303234,31269906
26524214,-562916469,913520935,28679629
22710054,-567902898,910590367,26781169
20877009,-573287422,907234044,27451366
20614797,-579319595,903308677,30311329
21342356,-585806728,898978132,33686859
22762497,-592522367,894421834,36471826
24083071,-598871015,890064703,38468751
25098961,-604064097,886494677,39055138
25722398,-607834047,883927417,38340013
25787311,-610380097,882254118,36336342
25412296,-611740665,881421501,33841068
24793614,-611882176,881438187,31204012
23891107,-611222046,882007054,28668584
22815567,-610312323,882703504,27465263
22590790,-609017529,883614758,27087897
23048085,-607838392,884392067,27810976
23880791,-606845480,885011542,29057675
24406055,-606106156,885469093,30094209
24634772,-605155410,886109698,30185405
24626866,-604506470,886534211,30725158
24425596,-604333633,886631422,31471808
24147562,-603908460,886899953,32271455
23980444,-603614005,887042818,33935483
24539789,-603367561,887148451,35135618
25509903,-603335645,887118261,35749703
26408127,-603211543,887162014,36104166
26879057,-603164533,887164840,36470702
27125434,-602867357,887366852,36286785
26927263,-602191720,887841016,36053962
26207592,-601651343,888222148,36218020
25712733,-601047208,888672202,35557458
25180006,-600904762,888797183,35220854
24761891,-601079015,888696761,35077395
24754744,-601178342,888652137,34506163
24807406,-601267667,888583707,34673748
24517345,-601629307,888309483,35620788
24745948,-601722868,888239496,35627470
25012718,-601645404,888301357,35204785
25127757,-601598335,888339204,34971477
24991008,-601590808,888342287,35120323
25018212,-601595825,888338752,35104411
25239571,-601749973,888241798,34755548
25481560,-601888668,888159331,34281641
25478125,-601925105,888137043,34221813
25305807,-602298645,887882782,34374842
25286388,-602497452,887743440,34503775
25156478,-602787575,887501146,35742310
24731945,-603287277,887115777,37146772
24230872,-604240208,886440770,38090708
23862529,-606095710,885107635,39806411
24240595,-608630638,883239190,42322327
24940818,-611536793,881050512,45521514
25608835,-614628274,878677221,49235346
26561913,-617301503,876666979,51086518
26860697,-619551183,874981474,52571457
26541472,-620874918,874042255,52740205
25631823,-620954167,874103596,51218571
23404769,-620063199,874928851,48937272
19543605,-618327069,876347601,47181165
14544543,-616349515,877880087,46365833
9546941,-615040155,878905511,45618766
5441658,-615203783,878795440,46203622
3115718,-616883758,877519593,48224399
2580360,-619391623,875603586,50864780
3128443,-622085334,873590564,52546003
3746314,-624599749,871724215,53661136
3650209,-626866772,870070461,54070566
2544319,-628670459,868817327,53337961
728304,-630640169,867458009,52254711
249549,632551711,-866206980,-49852228
732714,634477182,-864953918,-47057355
712651,636384636,-863672546,-44780867
475982,638087015,-862512764,-42871594
131072,-639595377,861496800,40773853
415778,-640836619,860619250,39802864
309130,-642178784,859593079,40343020
405317,-643568738,858491109,41636958
623450,-645028750,857320218,43140160
845640,-645924940,856618966,43654430
268217,-646729755,855975935,44353775
572268,647678483,-855254659,-44421053
1254628,648776758,-854422561,-44392995
1595905,649659130,-853738465,-44638619
2056305,650170826,-853291084,-45711061
2484092,650167139,-853254997,-46410522
2616518,649507672,-853765204,-46253869
2741175,648697342,-854404809,-45805820
2863392,647513773,-855313186,-45591386
3251800,646169748,-856335787,-45437980
3892088,645309713,-856987454,-45323686
3992654,645059925,-857215664,-44548437
3623933,645619438,-856827682,-43934469
2770785,646509038,-856148811,-44148678
1787878,647516763,-855342740,-45046063
832847,648358938,-854668517,-45751785
182444,648941785,-854183318,-46549889
185363,649556640,-853692812,-46970479
839268,650212530,-853208643,-46684888
1951553,650848986,-852776276,-45671859
3498791,651156098,-852598535,-44505491
5077335,651210030,-852587125,-43776898
6423948,651288291,-852548441,-43185147
7167563,651360518,-852535599,-42221555
7649345,651550594,-852447854,-40956969
8380400,651872073,-852231220,-40199792
8839832,652217038,-852005433,-39281550
9398069,652693830,-851665951,-38588263
9594388,652872729,-851559713,-37851131
9595283,652825297,-851617301,-37370307
9703461,652780295,-851655132,-37266215
10077016,652265856,-852036496,-37456941
10767964,651634519,-852496155,-37793082
11603194,651166136,-852833100,-38016301
12980015,650878620,-853016981,-38367669
14531580,650579676,-853185210,-39133386
16390307,650907118,-852812869,-41024352
18673783,652069919,-851770427,-43182820
21024768,653872426,-850268879,-44420149
24275314,656277367,-848303313,-44874499
28384967,659375681,-845785493,-44569093
32360879,663068924,-842863929,-42358801
36916253,667403746,-839385264,-39538767
42594195,671844267,-835695275,-36686897
49080804,675647185,-832410178,-33267636
56156596,679227172,-829179234,-29667288
62932605,682967793,-825752210,-25480855
69290518,687671246,-821434592,-21766057
74691143,693451895,-816168898,-18317554
79450748,699956295,-810205191,-15418667
83709567,707087196,-803596454,-13215223
86924811,714130525,-797034422,-10922749
89529264,720672812,-790861792,-8622101
91752242,726341778,-785427686,-5825455
93686471,731210014,-780684695,-2769689
95235798,735007403,-776926071,1146616
96835543,738010891,-773859287,5108995
97738240,740240661,-771570563,9556233
98550623,741852118,-769854776,13718338
99405087,743109981,-768469879,16774625
99888984,744112802,-767386693,18907620
100412193,745270396,-766156561,20372994
101274156,746694468,-764637247,21031032
102147267,748261068,-762974346,21516569
103440730,750157192,-760933705,21577864
105312542,752390132,-758461197,21828138
108253292,755015980,-755415369,22386358
112248453,758226395,-751577525,23357563
116454414,762054963,-746985361,25395737
120660220,766235635,-741949448,27506016
126345033,771132348,-735874125,28330414
131904247,776484261,-729179723,29864510
135096613,781275881,-723335106,32630234
138449001,785895092,-717587613,34498868
141812737,790605481,-711677513,35619442
144621166,795177475,-705926573,36968626
145906946,798914176,-701341497,38586414
147287089,801456121,-698180646,37945822
148429655,803204810,-696025780,36059346
148231548,804033349,-695197112,34354806
148262388,804102170,-695254597,31312995
148452220,803806154,-695719797,27441982
147694369,803338641,-696524273,24674587
146086191,802980743,-697334457,22954501
144184712,802664794,-698124288,21999578
142004433,802379021,-698897351,22060066
140051061,801867161,-699862563,22542613
138546582,801128822,-701005364,22589771
137261585,800244211,-702274105,22383309
136233069,799289394,-703571437,22039696
135460586,798366681,-704772913,21856762
134933714,797485217,-705873498,21779184
134712915,796660320,-706840109,21967735
134794374,796110472,-707424251,22583347
135016113,795821437,-707678790,23476092
135563856,795636088,-707763015,24055690
136486195,795612187,-707605102,24275132
137076175,795754671,-707299800,25161464
137409377,796164545,-706735906,26201244
137683186,796708935,-706055559,26555769
137634982,797316823,-705372501,26712937
137410588,797978280,-704680964,26366622
136883183,798533783,-704158766,26243284
136054787,799086590,-703697796,26088889
135414565,799605431,-703252698,25518583
134726034,799969363,-702999945,24692227
133509125,800138038,-703074973,23696440
132497593,799864450,-703630847,22054118
131958157,799246111,-704491331,20153438
131241155,798271791,-705773925,18508170
130095667,797375360,-707041923,16756421
127908428,796617191,-708344281,14486192
125110763,795948593,-709663852,10576271
122000897,795174482,-711130214,5352268
118358142,793990058,-713086689,-55562
115223620,792339388,-715409372,-5717470
112892179,790382467,-717879018,-11045110
111269385,788554818,-720066467,-15027065
109391911,786802624,-722226485,-16891046
106958533,784967464,-724569359,-17512052
104069997,783037567,-727083690,-17100178
102115365,781162732,-729379768,-16849279
100878644,779111880,-731746183,-16649539
99496152,776976306,-734220438,-15805436
98429636,774974475,-736496350,-14855131
97786838,773348824,-738300632,-14246348
96646155,771892686,-739995421,-13018364
94841377,770663161,-741531204,-11677908
93175253,769709440,-742749553,-10504791
91102897,768834808,-743930550,-9055542
88340528,767786836,-745363321,-7372344
86046003,766458144,-747004109,-6660743
84820826,764949525,-748685626,-6999143
83167501,762928175,-750932757,-6727299
82251155,760795187,-753191220,-7064316
81935031,758729402,-755302358,-7495097
81486912,756563843,-757521179,-7360292
81397185,754654126,-759432138,-7480067
81559188,753008712,-761043438,-7768035
81496920,751578272,-762461155,-7925749
81299044,750407717,-763635244,-7836549
81064851,749447055,-764603148,-7816479
80630202,748817847,-765267964,-7550203
80213792,748631184,-765495973,-7379802
79635093,748707533,-765480553,-7498977
78801912,748844567,-765435056,-7248117
77822038,749128149,-765260726,-6940426
77204550,749629505,-764831897,-6976721
76693522,750194882,-764330917,-6742213
76129542,750812470,-763785908,-6123337
75647151,751481779,-763180576,-5435431
75221230,752291620,-762427349,-5011845
74817968,753153674,-761617012,-4779208
74327188,753990756,-760838782,-4388511
73705505,754708263,-760189450,-4054894
73028149,755403637,-759565508,-3738872
72385986,755978202,-759056856,-3379670
71676559,756361254,-758743947,-3041959
71111769,756634093,-758526088,-2765101
70369489,756650764,-758580110,-2299307
69727280,756550451,-758740837,-1814164
69701365,756501221,-758792271,-1828415
69352443,756413614,-758912518,-1392295
68768421,756297570,-759082269,-701844
68640301,756358502,-759033163,-693231
68375425,756382912,-759032862,-555344
67784785,756344439,-759124345,-217543
67463709,756278783,-759218363,-183816
67112031,756245865,-759282192,-475748
66562035,756140081,-759435691,-781333
66079623,756110387,-759506461,-1416266
65367265,756209057,-759468179,-2135541
65091499,756211366,-759486712,-2980661
64958952,755893355,-759814071,-3102405
65413827,755301120,-760364137,-3020464
66627634,754762679,-760793613,-2939573
67227386,754326983,-761175202,-2248714
67410345,754251909,-761233270,-2244691
67067100,754205183,-761308092,-2834636
66300802,754160665,-761412278,-4329358
65494347,754217342,-761413858,-6093007
64725942,754236057,-761446455,-7699415
64374979,754268701,-761434755,-8551814
64237438,754304719,-761409197,-8682852
64417299,754447172,-761260892,-7947765
64420752,754552083,-761167271,-6851483
64477074,754705077,-761009741,-6969174
64087987,754745081,-760996522,-7634278
63570629,754655362,-761119500,-8524819
63147957,754421638,-761378221,-9221567
63036042,754234451,-761565955,-9780202
63030089,754048330,-761752216,-9663911
63150541,753800648,-761989364,-9502977
63476631,753581299,-762186914,-8863269
63686855,753497164,-762257939,-8376790
64019297,753467348,-762257011,-8609274
64024687,753374882,-762345937,-8785530
63885492,753170844,-762556480,-9016826
63619441,752887720,-762857871,-9056660
63315492,752650100,-763120930,-8770833
63184003,752612343,-763168674,-8804826
62984230,752694842,-763100168,-9116010
62531818,752862796,-762969427,-9302785
61991547,752997688,-762875779,-9673826
61510771,753056295,-762855794,-9756297
60875575,753016022,-762943352,-9999136
60386952,752999760,-762991765,-10480869
60096285,752860846,-763150402,-10580708
60011319,752587620,-763427891,-10482154
60197569,752447799,-763551096,-10478126
60402908,752403494,-763576391,-10633491
60613344,752407762,-763552286,-10862508
61291768,752401482,-763510940,-10386488
61433924,752363636,-763560559,-8462304
60882930,752599507,-763388167,-6874839
60187963,753003368,-763047161,-6623585
58610595,752873176,-763291904,-7331323
57127830,752199517,-764050068,-9015361
55896967,751330334,-764976067,-10551361
54687857,750747561,-765623471,-11380197
53328460,750462592,-765996027,-11556802
51760565,750444205,-766121189,-11583092
49313183,750451364,-766277852,-11431565
45906850,750416357,-766515235,-11989044
41826913,750275394,-766858446,-13673754
37361506,750256605,-767055157,-16341229
33248153,750220272,-767207313,-19456343
30026282,750284265,-767207802,-22037187
28793965,750294217,-767190894,-23856434
30074806,750139985,-767277152,-24347218
33396476,749053430,-768261785,-22336014
38797957,746965115,-770155364,-17889555
49133860,743816059,-772696846,-13586684
65367388,739147466,-776021712,-9996178
84963766,732521642,-780444844,-4533366
106119978,724165955,-785642080,3198838
126759690,714920480,-790935107,12800404
147825801,705742852,-795348219,20427123
166379056,697364178,-798904779,25958249
181558152,689839740,-801982758,30036003
193820186,684017374,-804011658,32259503
202305037,680254365,-805074674,33210637
207340635,678020815,-805691728,32862935
209997421,677259690,-805741775,30365531
210582786,677285281,-805708127,26370876
209728654,677374287,-805996887,21644100
209147760,677450735,-806232792,15095926
208791917,677544337,-806354809,7281327
208682892,677827706,-806176922,-1145757
209019848,678103085,-805808779,-8978242
210127016,677983631,-805516468,-15796492
212066477,677727291,-805099802,-21196251
213266447,677732610,-804724192,-23158477
214121295,677911735,-804351378,-22977929
215510943,678008627,-803877532,-23696951
218004581,677479344,-803553546,-26804656
222153614,675806844,-803574347,-33484449
229596294,672587744,-803609250,-45218030
241020353,667636049,-803344672,-61074714
255207225,661240683,-802919392,-76612570
271173720,653279442,-803275856,-85791524
284732387,645332840,-804949623,-86316876
293735689,638448038,-808188549,-76525832
301035622,632917946,-811046115,-62593644
310127824,627690656,-812309980,-53831680
321902647,621433699,-812639231,-52316609
332466041,615521299,-812919388,-51800188
339269427,609838767,-814644177,-47636651
346249890,603635649,-816522175,-44136696
354723778,596909952,-817947056,-41876837
362870773,589467732,-820026517,-36432743
371736222,580790438,-822570827,-28164120
381653409,571522384,-824778748,-19088304
390387860,563444211,-826437451,-7064579
399090317,555828641,-827451555,5183762
407083556,550316762,-827089032,16723487
412920640,545571773,-826999919,28993160
420180284,540001585,-826754167,35295249
429389020,532961135,-826450162,38451185
441660829,522738007,-826348987,41778856
457700855,507274140,-827140514,44064385
475033660,488505690,-828378353,49151024
490970348,470920039,-828612905,59199448
506492244,453933662,-828193359,66536489
522909361,437530161,-826576903,69458325
536062795,419576424,-827428964,69808142
551317776,395849231,-829991727,58191417
567823334,370660823,-831741703,36255503
581545104,344165044,-834310880,14231879
594054929,318732297,-835656107,-10421881
602807982,298570585,-836520740,-25138781
609605448,284740309,-836322047,-28096409
616066978,275607740,-834737552,-25162214
621399498,268844250,-833111401,-20648971
626451345,262644722,-831374678,-17447169
631597910,256597335,-829446144,-12919896
636154014,249137071,-828332308,-4553531
641237697,236997747,-827986691,1432447
644855499,220726553,-829674204,-627891
647054935,203044261,-832365398,-13404832
646090094,186041707,-836582201,-31702233
642787692,169925448,-841519859,-52074300
637277020,154642181,-847193550,-71718727
629497941,139372506,-853948946,-89372662
621322250,122802918,-860175614,-109048691
612355459,105911419,-865700742,-131472410
603561385,90506416,-870027859,-153279021
596613671,78274908,-873106418,-168912787
592299814,69702795,-875595603,-174860294
591434548,61965421,-876731609,-175010004
592966245,53061154,-876484396,-173988398
594601550,42453011,-875739471,-175066781
597246501,30335724,-873791616,-178285510
599650929,17234410,-871774448,-181802266
601857590,3184583,-869620491,-185575725
603596981,-11483311,-867211641,-190796945
604271511,-25834360,-864967936,-197331224
603601062,-37589436,-863155918,-205268946
602143100,-46120780,-862062868,-212285179
599823378,-52694598,-861573380,-219197416
597287751,-56819323,-861359656,-225830909
595265954,-58929912,-861211667,-231130722
593364986,-60087077,-860813273,-237127282
592909942,-60511555,-859489262,-242890257
594486477,-58688761,-858016261,-244685143
597273885,-54268916,-856640987,-243733791
598807649,-46468213,-855631425,-245124528
598194234,-33184924,-856483270,-245804658
596328484,-14844748,-859367024,-242036120
593425033,6711744,-863597153,-234356440
588835747,26997044,-868764010,-225197960
583352023,42979819,-873797200,-217377718
577347111,51826877,-878184148,-213771806
570292025,54416580,-881767021,-217288442
562921482,53564478,-884462470,-225578472
557669616,49878027,-885727273,-234351522
554765301,44979246,-885878871,-241557114
554823676,40100144,-884963062,-245605166
556990481,34439382,-883213946,-247842554
559259344,28394074,-881209317,-250614932
561394190,22957236,-879758400,-251488856
562691019,16629607,-878975573,-251821192
563608888,7829896,-877810082,-254272849
564330381,-2504236,-876244595,-258150859
565041462,-14184672,-874743529,-261289506
565768480,-27320073,-873059346,-264288715
566488805,-40787902,-871702877,-265485180
566789606,-54173993,-870596161,-266079973
566837046,-68588664,-869040265,-267734724
566494889,-83947166,-866852280,-271155019
565249571,-99036377,-864175449,-277140793
561287129,-111610609,-862315931,-286047540
554875633,-120457709,-862207084,-295162216
548160061,-125074030,-863861921,-300899853
543013049,-126121229,-866679032,-301693870
538983033,-126315091,-869310375,-301245905
534127136,-127509744,-870821845,-305025062
529643712,-129709334,-870945076,-311495019
526740183,-130053851,-870912223,-316328860
525872786,-127831745,-871388935,-317363142
526344888,-124723087,-872010652,-316107367
527175831,-122601720,-872672528,-313717120
528337845,-120700705,-872804947,-312127175
529772851,-118053778,-872780351,-310773133
531498615,-114248170,-872899706,-308908027
533247767,-108649317,-873261491,-306884370
535332189,-101089052,-874329744,-302758087
537772936,-92695909,-875926152,-296445875
539560299,-84974920,-877016413,-292263003
541379682,-76868256,-877325000,-290209668
545202667,-66339545,-876952077,-286756970
552218693,-52468928,-876281586,-278122660
561839669,-36044994,-875277204,-264268772
570677220,-18206287,-873853931,-251588659
576867502,221461,-872262156,-243524255
580699409,19473859,-871631344,-235773719
583577813,38092581,-872010707,-224732471
585382057,52985524,-872928219,-213162276
586155990,60965594,-873474925,-206560761
585601042,63209925,-873264353,-208342845
583556015,64529627,-873073723,-214387603
581495881,67661655,-873231445,-218340932
580714815,72381224,-873199739,-219031868
580963958,76839325,-873100303,-217241662
581784091,81033202,-872955995,-214079890
583174340,84721546,-872515736,-210636434
584404304,88221610,-872176133,-207168549
585059611,92568638,-872299289,-202858820
585466057,98070931,-872712744,-197244780
585624146,103990156,-873392950,-190621637
585631604,110066447,-874310466,-182821382
585187932,116264426,-875647632,-173782460
584736576,121615504,-877041482,-164354799
585818529,125072150,-877517438,-155107060
588792227,127848195,-876866729,-144929974
592791486,133208140,-875323409,-132605028
596471298,141141487,-873685282,-117882514
598945838,151085248,-872149884,-103502508
599230124,161728934,-871465445,-90752568
596867583,173664264,-871675838,-81805955
594765941,186631254,-870805371,-77727164
593613232,200212146,-868818843,-74923561
593554128,215112480,-865656311,-70573133
592875965,233449288,-861885799,-63825581
591591118,254874126,-857296581,-54982277
590441403,278520333,-851342149,-44082790
589273844,303015132,-844415652,-28666534
587385364,327151026,-837132911,-8975270
585360103,349432998,-829501793,9917361
583595870,370265176,-821360533,24655591
581917073,390969372,-812379161,38432328
579537874,412066098,-802742781,53506047
576656217,433144061,-792527670,68375563
573542441,453691278,-781887472,82381890
570600920,473741356,-770515826,95971790
567869934,493385350,-758244120,109918128
565534155,512946185,-744705743,124065279
563549894,532781367,-729407894,139431572
561036629,553586566,-711890220,157812068
557240943,575434384,-692175531,179354082
552536319,597370344,-670701131,202317239
547375620,618049724,-648422127,225531420
540911828,637468637,-626415798,248138830
534955227,655297848,-604504117,268128905
530096139,672477757,-582024017,284501762
523582350,690001587,-559491455,299415210
515418447,707341286,-536776769,314324503
506073892,724053295,-513936413,329282419
495555147,739877690,-491368590,344215785
485463966,753882996,-470271993,357422545
477314880,765579159,-450749185,368518093
471046161,775005669,-432127290,379036828
465670849,783175086,-413071701,389974538
459607175,791069373,-393136603,401664712
452107852,798860791,-372609924,414126983
443457569,806322321,-351986145,426862716
434547755,813393115,-331348111,438962825
425895283,820423256,-310540389,449449344
417639199,827401740,-289715132,458225318
410104427,834333779,-268578183,465283526
402355273,841079000,-247042107,471792384
393908338,847491561,-225620625,478130697
385664011,852881559,-205034606,484498265
377956053,857216262,-185151233,490878665
369781754,860820587,-165804784,497673831
360689276,863633426,-147118815,505284940
350183160,865984849,-129061548,513523723
337851800,868343620,-111481552,521851337
324193198,870754922,-94764081,529740801
310353861,872762215,-80219677,537076827
296785387,874520074,-68537201,543467735
284308805,875888134,-59880924,548930106
273395296,876614192,-55101802,553794013
265615380,876602057,-55324457,557564354
263518393,876393938,-59800478,558423744
268148421,876075446,-67118036,555881883
277310372,875649125,-75447080,550968401
286289707,875134664,-83467640,546014819
293110937,874944931,-90349670,541586349
299374343,875651415,-95016670,536192904
304368668,876910076,-96192868,531089908
302615823,878218419,-94845493,530171349
294398299,879329806,-92531354,533355570
282920838,880284888,-90335371,538345003
272347103,881132036,-89103673,542600599
264838191,881430219,-89016210,545837986
259263662,881398252,-88755083,548600868
254690636,881366641,-87744033,550949286
251531837,881156048,-85878378,553029985
247626353,881091704,-82545527,555397459
242978672,881930754,-77546046,556837153
240546628,882956326,-71606927,557063172
241010714,883668363,-64864449,556559205
242741187,884131912,-58084323,555819380
244563742,884584197,-51724683,554928311
247043879,884617709,-45201785,554345680
247625974,884776914,-37133219,554431075
244832951,884335301,-28282714,556892709
239773912,882717161,-19993346,561997001
233716636,880076886,-12295255,568868544
226155535,878073982,-879517,575117351
216957794,877245376,17061912,579655010
205679723,877643095,38545132,582129045
193489328,878699903,59297843,582969636
185035923,879671143,75689879,582351136
182280863,880130655,85270316,581200186
185459629,880102797,88357039,579774326
192612321,879432847,87716964,578554742
200959660,878286996,86651077,577616019
207351707,877424642,86476694,576692766
211683745,877119293,86686483,575550730
214721415,877310829,85791598,574266114
218604573,877397129,82653244,573128016
222568766,877566080,77184849,572104284
225451960,877926988,71616557,571145870
227863772,878655992,65904918,569753818
231009648,879477037,59793689,567891445
232647172,880628624,53730849,566041404
232555767,881830084,47091686,564798410
231738097,883229283,39841083,563504658
230689726,884341154,31231499,562733372
228969076,884721771,20488515,563331132
227326442,884180533,7791212,565161794
228133620,883294214,-3733381,566262824
232327873,883444501,-11272348,564219684
238087650,885764391,-14585419,558072076
242311971,888802515,-16203548,551338312
244598798,891375917,-18315063,546082833
247015841,891834443,-23184171,544057440
251603330,890421261,-29746173,543950746
254346698,888932622,-34316518,544839823
252577282,888254900,-35189141,546709410
249040990,888034312,-34229059,548747229
245859341,888295663,-33126862,549825529
245522097,888958221,-32160807,548962080
248869219,889604087,-31201558,546458277
252254815,890418337,-29133100,543686915
252777517,891872374,-24842742,541268454
251007710,893723530,-19051939,539269793
247791325,895826042,-12268970,537462685
244526748,897661718,-5956591,536000119
245075762,898660025,-544975,534106014
248579632,898890023,4875182,532073895
250181290,898319509,10763082,532200191
248798917,896729146,16430796,535376009
245278737,894257160,22348300,540892344
241380719,891561150,29594519,546717218
236220362,889390711,38318743,551939503
228710694,888259523,47619169,556183450
220594475,888098815,56150932,558915196
215216047,888888063,61430225,559202743
215757515,890004066,60703122,557295135
222771446,891029338,55306467,553444309
231800441,892086326,48659311,548638442
239859493,893423591,41916868,543531201
247524630,894768046,34691377,538367638
254146373,896035824,25831805,533651241
260852044,896921545,14496371,529338292
269978323,896768169,1148719,525203526
280543498,896040823,-12909604,520729076
290982236,895292855,-26953224,515727703
300789192,894533326,-40743845,510487293
309752449,893624601,-54658061,505392190
318137300,892047000,-71251997,500883408
327699326,889094387,-91958975,496577295
339391605,884457933,-115881171,491976128
350672480,878725301,-142409189,487351804
362473540,871103956,-172129551,482783780
376036455,859941420,-207273767,478598394
392877610,844917579,-246208173,473352856
413130452,827779357,-284066231,465115496
434066443,811405513,-316938152,453517112
448966539,798331758,-344003638,442352445
457361175,787610258,-368614014,433052804
466005680,776217808,-393854336,422047780
478903672,762264603,-420888401,406667291
493568293,746711683,-447928801,388707199
504519588,731877159,-473128001,372675744
511965271,718162779,-496289362,358809471
518905748,703257810,-519904492,344650371
527617826,686206998,-543973148,328258956
536137660,668602594,-567526188,310420541
544807100,650407522,-590272844,290954737
553114001,631864391,-611774616,271042163
560454071,612953556,-632296811,251581582
567400378,593953380,-651475067,231900703
573814597,574890837,-669323605,212519990
580095148,555357638,-685985826,193422970
585981438,535572548,-701589686,174588537
591273847,515308766,-716417779,156585555
596700968,494187627,-730230211,139325372
602024065,472373158,-743052948,123384669
607544207,450158544,-754756990,107281826
612912952,429039094,-764720235,91570688
617455386,410167421,-772895889,77852427
621119386,393374868,-779797505,65562868
624086856,377481637,-786195065,53238012
626397939,362033392,-792394754,39747266
627867634,346837380,-798565678,26255407
628607142,332101390,-804557933,12565714
628854148,318582849,-809911254,-744923
627796093,307903931,-814752476,-12495347
624877408,300014764,-819723299,-22050510
620809800,292584552,-825140005,-32393488
615939417,284645390,-830993614,-44309828
610675255,275150475,-837387019,-55412361
605452195,262482622,-844458209,-65888716
600408078,247176699,-851364798,-80701690
595088388,231105637,-857378874,-101403674
588650851,214585119,-863234422,-123252353
583355026,197595557,-867670099,-143954766
581331593,181342645,-869665951,-160533601
582034790,165103601,-870161955,-172383154
583625710,148633609,-870245126,-181339367
584543138,134191391,-870285442,-189279416
585064830,122820988,-870459432,-194514728
585225713,113014314,-870980155,-197619965
586127886,101782407,-871082204,-200578358
588089267,87425838,-870588776,-203726130
591512704,70341394,-869141319,-206590246
595662071,52381877,-867063995,-208720115
599173675,35132375,-865099628,-210428852
602252449,17287641,-862988820,-212518790
604838327,-1451813,-860286423,-216786327
605613340,-16753363,-857953498,-223132378
602991704,-24306715,-858065541,-229029393
596475183,-25165481,-861267325,-233931266
587001800,-23012672,-866393249,-239130659
577629506,-22017524,-871193549,-244545856
569698857,-23890870,-874511138,-251046238
563478078,-28146563,-876142688,-258835323
559036119,-32466602,-876712676,-265922221
557550297,-35326245,-876868672,-268156338
558783809,-36518526,-876663621,-266089164
561868139,-36913982,-876103784,-261332902
565226990,-37072613,-875365559,-256516501
567977760,-37927806,-874179664,-254350480
569979675,-38625876,-872929108,-254061978
571471645,-36966262,-872351073,-252940237
572158418,-32852063,-872549972,-251263876
571991653,-28651486,-873072708,-250340151
571274987,-25137559,-873708052,-250137435
570552618,-21832795,-874099645,-250727651
570079128,-17813636,-874046325,-252303366
571257919,-12711839,-873310349,-252494230
574862562,-8319940,-871522760,-250665895
580198521,-3797074,-868930820,-247459034
585111417,4639937,-867142805,-242090701
588230472,16632189,-866669854,-235612095
589734305,30612233,-866972422,-229252151
591279820,44302243,-867242357,-221895327
592696203,55325195,-867748463,-213504705
593651335,60741915,-867953518,-208486203
593424923,60960025,-867390075,-211391804
592095376,59204355,-866265958,-220051213
589919835,58073658,-865405467,-229383526
587935671,57804863,-864945495,-236179918
586763521,56954762,-864378806,-241320201
586032871,55709175,-863805765,-245403760
585320007,54589422,-863792073,-247396826
584784947,52829862,-863898783,-248668289
583444230,50911122,-864781179,-249150286
581598255,48979330,-866057977,-249418431
579493078,46618841,-867461297,-249893661
577433663,45061498,-869184773,-248956120
576272618,42963947,-871039222,-245511992
575490433,40669380,-872810501,-241412696
575984569,37899583,-873920935,-236620147
577973490,35326217,-874407410,-230286510
581404662,32970371,-874301516,-222260907
584372695,33765314,-874462639,-213553292
585021394,39545180,-875561469,-206154585
582250488,49199174,-878049026,-201283860
577352115,61156940,-881351200,-197651008
572546088,74732888,-884334286,-193598414
570072017,88631333,-885572501,-189328377
569767432,102448906,-885314158,-184417029
571171345,117041559,-883892557,-178101150
573558195,134676163,-881614685,-169027743
576907188,155453671,-878583775,-154997735
580896400,177332999,-874833553,-136748365
585344985,198799560,-870119136,-116893635
589980465,219508172,-864446691,-96914995
594937640,240151068,-857632460,-75924191
599368916,261420672,-849994299,-53355959
602454116,284455667,-841482169,-31025283
603814562,309597761,-832090690,-10146367
603954781,336219080,-821607546,8777417
603746660,363409403,-809729083,26135432
603322929,391308941,-796176878,43610205
602074404,421333135,-780359379,62808214
600385208,451947312,-762439880,82991693
599215476,481283076,-742665336,103327901
598022414,508878798,-721721757,124299554
596446782,534682093,-700207637,144902549
593593835,559537831,-678385498,165161092
589892076,583719508,-655503337,185837659
585108868,606851795,-631603956,208270032
580835391,628096211,-606148912,231582329
576807609,647325129,-579864665,254836467
572731115,664508217,-553521444,277386755
565715018,680247307,-529774395,299149990
560666092,694791806,-505599501,316543987
557021290,709054567,-480084610,330764140
552121537,724469774,-451798967,345113298
544265086,741573193,-419993343,361070271
533974268,759157523,-385115182,378363763
520908509,776142382,-350279197,395577953
506524767,791539598,-317038683,411467745
491232513,805349136,-286018874,425697167
475180212,817139506,-257852538,439226788
459590766,826264024,-233444977,452203460
445297048,833121258,-212152078,464247697
431616111,838369572,-194361581,475382113
418977258,841980781,-180319027,485729231
407502380,844218952,-169611494,495368161
396404630,845895278,-161703058,504077381
386224166,847870521,-155573506,510553396
378095601,850104717,-151407078,514155832
372819737,852003331,-148746154,515646933
369046029,853907047,-146028607,515988752
365078065,856134087,-141374266,516415885
359052210,858494643,-134674329,518510163
350038637,861216170,-125457283,522457302
337919146,865300470,-112360113,526652056
323959209,871018331,-95742806,529274697
311790458,877328159,-78155174,529049565
303566958,882813648,-62737533,526756450
299257459,887217954,-48891367,523278424
296232922,890527847,-36882919,520353073
294432170,892309692,-26402123,518958109
292050328,892836736,-16483822,519806644
286817059,892888023,-6604208,522843038
279167248,892791560,3239644,527160800
271071825,892641234,12840371,531477487
265307975,892232306,21688421,534775000
262428902,891769338,30360935,536542751
263585666,890010133,37593454,538435464
266200292,886647802,42976915,542279973
266477745,882272007,47574012,548856936
264928352,877487654,55754814,556454201
260499462,873550235,69972185,563094197
250541495,871173283,89050151,568575101
236605622,869138553,106162646,574688518
224080328,866380662,117153550,581694394
216233677,863132230,122030071,588451913
214809282,859914804,123749286,593305113
218104452,856891564,124645373,596281698
221053188,854693659,126892106,597873779
221000015,853708794,130146500,598600549
220294281,853323039,132645772,598862210
219677881,853584001,134056769,598402482
218357095,854636558,134402362,597305230
215540269,855934943,132763037,596835853
210633071,858033999,129257514,596343299
205348800,860523058,122868898,595950227
202219153,862890235,112245125,595693205
201699635,865391578,98772646,594626054
202889883,868148990,84306987,592424564
205645148,870589621,66784793,590122935
211865838,871797584,44500664,588237178
222092322,871840531,19506541,585754782
236710301,870484941,-4364989,582345767
254127871,869785750,-23235663,575563536
269085570,870542006,-35596026,566923907
278438969,872618565,-43725214,558584960
284638531,873643785,-52882458,553039234
290222862,872763827,-64989625,550228899
296272973,870645114,-77714892,548708728
301989098,868455628,-88876216,547366162
305685770,866811695,-96708156,546591455
307454977,865921519,-101732763,546097565
308621864,865931622,-105118551,544780317
312344856,865813996,-109336788,542007135
319327256,865073513,-114537717,538032927
326688149,864205269,-118885568,534051881
332094559,863548748,-121228635,531245423
335773597,863115460,-122606718,529317287
340188177,863086063,-123222583,526395390
346026725,863368374,-122785175,522212457
350126916,864355797,-120724114,518312057
352592771,864764628,-117657226,516661163
351701408,864147910,-115444326,518795354
349206046,863158479,-113603830,522521049
347191874,863050427,-108545142,525110665
346121019,864410735,-100186224,525241406
343317959,866684039,-90684892,525061223
336811684,869147526,-83104309,526455660
330168017,870755230,-79233662,528599743
327175264,871119646,-80880248,529609673
332463712,870019239,-88371900,526921380
343349738,868453964,-97664473,520847197
354861603,867042964,-106853967,513627760
364488993,865930092,-116542333,506606393
373663161,864543994,-128583905,499326700
384350862,862015733,-144424994,491188552
396464019,858231569,-164175465,481890597
410044738,853034600,-187609184,471083404
426097939,846336029,-212528235,458158015
441635409,838975811,-237845677,444324921
455057561,831102819,-263416926,430954892
467555354,822256796,-289784138,417410993
480035422,812332880,-316925094,402692401
492433110,801160466,-345157169,386574131
505098321,788100525,-374961255,368915724
518954560,772409939,-405999102,349504055
534090225,753572572,-437824454,328796690
549262355,731915667,-469604596,308225185
563469619,709168905,-499539327,288033712
577659244,686920750,-525589829,266695532
590492339,666207131,-547905034,245373805
598842105,648359087,-566938914,229172334
601540209,633042917,-584673789,220189639
602997560,616971819,-602750459,212960908
606664691,598107568,-621718567,201523264
612151634,577374368,-640801790,184936580
617177213,556729145,-659105295,166261228
620328150,537442096,-676082921,148919521
621799151,518921007,-692153761,133885351
623052625,499125728,-708013115,119628012
625227739,477095132,-723583185,103974724
627782933,455075442,-737755784,86150124
629690482,434692467,-750145566,68719616
630762995,416217284,-760898120,53313518
631233732,399638580,-770144248,40215155
631596535,384107152,-778230843,28464201
632002342,368836147,-785593048,16788977
632391316,353774025,-792352023,4303560
632484651,340365312,-798094031,-8698234
631597254,329775214,-802986298,-21264139
630210270,320842920,-807285183,-33064128
629433609,311261754,-811073139,-44704799
627998669,302100129,-814864924,-57084371
626408696,294014619,-818101211,-69208334
624383634,287958957,-820755405,-80615221
621655258,284338830,-823011140,-90907825
618302264,282046448,-825200241,-100567545
614619567,279811033,-827458572,-110360515
610854574,276133374,-830219121,-119427061
607330125,269691738,-833310534,-130116310
604335217,260409602,-836148090,-144023485
602453007,248093714,-838659065,-158340311
601441464,233546467,-840868862,-172001898
600760470,219307934,-842195691,-186059781
599549729,207394732,-843142795,-198893930
598409122,196772726,-843761705,-210176809
597907385,185544744,-844070722,-220330750
598123256,173760068,-844224168,-228610299
598409139,162333832,-844436407,-235377301
598757037,150760717,-844415397,-242167141
598997388,139472633,-844215423,-248939528
599125765,129330811,-844092227,-254462610
599709438,120060869,-844079916,-257651089
601485076,111574826,-844228906,-256836903
602722434,105017613,-845104637,-253802863
603253128,99999801,-846263541,-250687941
603998982,95666577,-847254907,-247210242
605610471,91782331,-848107206,-241757285
607021880,90173580,-849762549,-232845514
605918561,93000337,-852973462,-222643937
601576727,99240924,-857436738,-214428993
594351562,108063037,-862499243,-209964109
585338263,116070706,-867810180,-209125919
576775976,121849051,-872433393,-210389527
569871336,125418237,-875708400,-213478872
565103695,128488829,-877054982,-218733857
562178380,134455624,-876902077,-223227543
560736650,146403954,-876286278,-221755765
559940347,164676637,-875917194,-212206416
560152781,186217721,-874695973,-198425233
560868252,209742741,-872183740,-183420510
562135024,234222494,-868448090,-166891176
563968127,258349700,-863203968,-151643660
566286309,284151236,-855985791,-137068313
568186031,313258406,-847026677,-120420590
569890290,344591009,-836065126,-101974035
571572091,376889661,-823000392,-82773102
573148599,409307093,-808006123,-63371872
575642668,440360764,-790992144,-44394160
580014782,468984721,-771956548,-25313200
586628096,494219064,-751338047,-5250613
593016102,517912232,-729909964,15861272
597487715,541426143,-708124609,36699308
601363035,562351347,-686975941,55753120
604760382,579293878,-668039599,72987248
609543139,591540571,-651248805,85625589
616365662,600867161,-635112187,92749606
623031444,608925395,-619742629,99374399
629442515,615498761,-605026326,108697898
634257040,621706323,-590491958,124234648
635078892,628680175,-576365866,148843692
631678044,636224560,-562397894,181150755
624878461,643409328,-549025465,216876759
615683001,650291806,-536322781,251656684
605146248,656033013,-526246631,281786625
596190808,659000463,-520144449,304377828
589657637,661035908,-516000366,319375030
580399099,666196690,-512413147,331169302
571985708,672456475,-510793906,335627363
565522256,680081006,-511838390,329571497
554284949,693995266,-513243441,317236658
539255729,712825976,-516212176,295823271
525146675,734589918,-520028501,259017507
501330289,762827378,-521893714,217510433
467109935,794653332,-523070663,172198953
428929654,826364233,-521921237,116878755
379633801,857902195,-518832298,60137780
324252793,885148294,-514094864,102137
270158834,905454726,-505529992,-67282064
213739165,919400474,-493936298,-134039776
151381189,927802712,-478391824,-200819736
84077679,929743717,-457970041,-267754564
13747419,922943720,-435510943,-333523042
51888347,-909660155,410347859,392889478
106447129,-894327145,384574210,440309128
151564734,-879754409,366426947,470864141
181412631,-869038237,356547228,487500517
192980825,-866247872,346960881,494886511
192428861,-868206947,340363444,496247976
186629878,-872189733,338004854,493080687
174727741,-878751914,340038580,484314525
153302201,-890399472,343615885,467479077
125001806,-905067024,352598506,440254506
85586228,-922006605,364668182,403134518
32505439,-939098459,377807900,356679368
26036723,951860747,-393944129,-301683173
86193326,957548776,-413303995,-240358824
148139603,956196609,-429574595,-179248058
207354850,947880186,-441786824,-127565740
265325032,934705556,-449735917,-81161902
308267721,920047033,-458712676,-31428521
346064261,902648744,-467139933,12905361
382230749,883228700,-473200486,53004921
410829506,866101528,-475711831,87789558
429190049,854086338,-474418269,119082424
438507404,848457454,-468351698,146276363
443300293,849797515,-456169435,161724805
442460441,856048275,-442666184,168445029
436242650,865407815,-430073323,169464508
427639011,875183468,-420115752,166140181
421084025,883864583,-412289404,156238461
415037762,892384578,-405691390,140461327
407055126,901601797,-399756967,120566135
395778446,911476275,-394563090,99037011
383032204,920874009,-390147877,77353247
369657612,928331043,-388831837,57320179
356436663,932938902,-392452098,38480732
338870272,935021062,-404180100,21504555
315362849,933212870,-427234395,6978011
296241590,923730244,-460206548,-9734005
287849826,905706448,-498638961,-33451434
280071079,882334523,-540969798,-57595483
268892107,853514170,-588240637,-78130810
260113952,819658283,-635489417,-97853597
251582196,781460371,-682149761,-116701744
245107337,740367004,-725302332,-136517841
238097540,697076962,-765822677,-154370853
227605000,651897240,-804743530,-168922781
218221871,604627985,-840465087,-182602498
213401784,556152750,-871123529,-198037872
213597639,510105840,-894926696,-214931819
217425906,471777618,-910926261,-230838308
220786395,443212397,-922187553,-239388296
224430620,423602818,-929442600,-243410785
229734314,413984072,-932154358,-244640188
231518079,416121101,-932311127,-238662704
232358554,428253887,-928832399,-229782137
237161992,451847343,-917455752,-225354305
242825662,485443234,-901137482,-215065797
248970334,526236249,-879738497,-200177085
255595967,569357737,-854600782,-181877014
265239027,614879665,-823025989,-164684469
275442746,658712277,-788834655,-144535746
286880622,699961370,-751302012,-127359256
294210042,733149761,-719208636,-107667540
305289007,759317189,-688820724,-93183013
319276057,776835766,-664185212,-79795914
333390711,787630212,-645683407,-67108664
364069327,792473051,-623402628,-61059051
393855705,791714818,-607388957,-45424361
414757153,790155145,-596845732,-18110611
434789223,784223087,-590471101,14708839
449238163,778565591,-585469064,46534588
455679392,774863138,-582096268,77635736
464546777,771668954,-577228063,91934397
465334449,774731569,-572116411,94119942
453437289,785822386,-567572286,87516415
433929411,802252158,-562327198,69318398
403983106,824260432,-555477837,41931710
361648012,849539795,-548023624,8954101
314232326,874364888,-537105795,-34351559
264061176,895166499,-523578254,-87954074
207664031,910900669,-508242325,-147468156
144609498,920288521,-492689705,-205755902
78904614,922223860,-474927014,-265787161
10395817,915533442,-457134237,-325023444
55545259,-901726560,440512170,377722621
117315824,-882834014,423974834,424273406
167656283,-861524266,406195219,466469969
206907571,-841788412,386743625,501928674
236719652,-825081895,369889628,528494826
256296328,-812709636,358928651,545806902
263849135,-807989159,353187650,552916905
255627421,-814871023,349118913,549249596
231417318,-832964226,348910258,532728418
194823014,-858186693,356655175,501276429
139085691,-887469765,368637879,458344821
68858706,-914251738,381981645,407938417
12565876,932606470,-398056192,-352930652
83306515,941137738,-418214798,-292126106
142169808,940232641,-443448354,-228090749
190649306,935335219,-461769928,-168786134
235142844,925483943,-475438460,-122747717
274440587,914036403,-485260190,-81631754
307575259,903216701,-490671559,-41942784
331866220,892704213,-495795456,-7223288
355465798,882801087,-496624002,24339544
385773948,870238790,-494524432,47222149
405123337,860887804,-493301082,65748126
406676091,857898556,-494631607,82980120
408950701,854480405,-498357605,84757052
413448556,851091492,-502600559,70835889
410538212,849326363,-510048178,53623275
402466188,846931156,-521958915,34770401
391083769,841278457,-540397703,13964165
380754139,830778939,-563598639,-10336073
374245946,814584717,-589758985,-38697790
363168915,795285965,-619916573,-65195659
348640914,772994354,-652621460,-89084064
338717047,747000090,-682880755,-117715540
326320365,719953156,-712465397,-143166304
310197028,691588181,-743066098,-162038653
294898991,659147143,-773751992,-181077225
281935982,622688347,-802524269,-204077503
269977915,582923248,-829982073,-226635559
260247002,540824683,-855422749,-246887017
253663130,497566152,-878146029,-264317988
248722500,453902154,-898085805,-280130940
244908716,409902347,-914041495,-299080980
242160662,369886797,-923552351,-323287051
236448564,340753934,-930931471,-338033831
230833872,323335765,-937578648,-340642443
229667019,316919045,-940539678,-339295925
231095771,321750355,-939811568,-335778156
236166935,336687446,-935491703,-329611063
245293205,360383161,-925261034,-326754864
257232041,391686178,-910558561,-322826443
271115502,429394560,-892356874,-314225090
285604012,470977790,-871435365,-300220218
302007384,516077418,-844638785,-286290503
322809669,564874840,-809398703,-272955793
342071230,613466562,-771561344,-253496782
360762569,660658877,-730404721,-229794476
372857000,703435619,-691054922,-203765786
382466587,740574851,-653407429,-176772267
388118504,768941083,-623099144,-150871939
394793503,788641240,-597949028,-132509612
405094455,799352089,-579384509,-119037032
424826898,802175356,-562864577,-110188444
443415641,800789205,-552679584,-97881816
452129404,799229410,-551208140,-76813595
468883312,791154046,-551272842,-56947911
491279580,777308820,-552960933,-39888167
503979560,765664644,-558961321,-15684507
512803310,754025471,-566767280,12952585
521978725,740098941,-575530947,38423113
530786837,726046240,-583345991,61246396
539620755,711410375,-590817590,80998768
546173346,698983873,-596766877,99533102
550926169,689252374,-600817959,115541457
554201592,681492366,-603912162,128988595
554767088,675698003,-606660365,143344948
555827489,671020377,-608840401,151720169
561286154,664109255,-611225899,152419753
568457977,656997474,-613084683,149192909
574254045,652080864,-613785567,145642083
577008309,650789827,-612841495,144501932
577270376,652513628,-610513116,145533871
576803291,655182279,-607592394,147604622
575175505,658604520,-604745759,150390458
573176569,661401377,-602825529,153426606
572436221,662371806,-602135376,154708934
572559187,662228208,-602335789,154087244
571173473,662996619,-602815502,154049733
570031959,663024333,-603927330,153803724
570001226,662069404,-605362078,152384271
570270418,660831227,-606789274,151069586
570293063,660172326,-607743387,150026001
569702318,660594411,-608042308,149199023
568562982,661959684,-607802673,148468609
567508762,663411884,-607469542,147379576
567196422,664516436,-607177712,144785558
567514963,665152248,-606989519,141366487
568222448,665687537,-606466405,138214892
568390264,666540889,-605783972,136392943
568055525,667410223,-605344194,135485889
568540864,667239532,-605187199,134991303
568696049,666966099,-605125569,135961680
568126231,666919060,-605203932,138207302
567130090,666426285,-606027104,141039439
567231786,664930751,-607242947,142452471
568125317,663203495,-608350637,142217287
568836144,662151520,-608961325,141663037
570231217,660876760,-609331493,140409769
572371212,659005525,-609663048,139051731
574155653,657120474,-610069576,138832929
575516329,655415369,-610352917,140008799
576163621,654248399,-610531974,142009577
576476091,653353286,-610795568,143718720
577453114,652451140,-610762544,144034785
578063115,652632309,-610112329,143521922
578122852,653729280,-609075590,142689925
578395389,655302936,-607526386,140961051
578726013,657001752,-605896587,138692879
578856863,659130853,-604046341,136090995
578887011,661321536,-602248255,133274841
579292527,662991861,-600746636,129949715
579555087,664568784,-599429149,126769137
579444260,665878316,-598557948,124500156
579049644,666206016,-598887739,122987884
580068458,664417424,-600255271,121182360
580932943,662340366,-601899656,120251574
580761953,660428932,-604092625,120593376
581301464,657721715,-606529118,120559784
581935158,655146456,-608781722,120170228
582368163,653097748,-610766751,119147397
582842741,651704287,-612182987,117172191
582966638,651158687,-613097841,114781401
582672180,651520306,-613343870,112894600
581220186,653228528,-612882259,113015051
579445999,655002081,-612348187,114742293
578271738,656206458,-611857379,116391236
577583116,657221883,-611107809,118007964
576783281,659172407,-609378997,119964652
575553291,661909431,-607125396,122207061
574432189,664940594,-604508474,123986575
573204371,668289722,-601600171,125794802
571458905,672100273,-598558381,127926971
569610357,675762723,-595718351,130115084
568310693,678898497,-593185559,131042678
567248266,681759241,-590891373,131158805
565998740,684489596,-588996721,130857894
565428696,686662332,-587401502,129097693
565419734,688126278,-586297574,126330560
565582525,688768641,-585930960,123776343
566337911,687817044,-586682482,122042028
568186206,685446117,-587947606,120694548
569381961,683311111,-589302426,120558136
570371949,681276925,-590577667,121149138
571511213,679760166,-591225068,121142361
571970234,679087660,-591544321,121189193
572553349,678681073,-591414382,121347415
573184697,678214874,-591280776,121624146
573566918,678160737,-590759753,122651623
573537902,678419952,-590084416,124589437
573324505,678652842,-589540093,126859417
573139568,678630451,-589363717,128622150
573029750,678490213,-589350201,129906812
573286862,678040576,-589507035,130407468
573104706,678268475,-589342642,130765531
572647860,679362193,-588517314,130806394
571733221,681443142,-586879142,131342094
570696242,683597768,-585149489,132368693
569774360,685634471,-583473631,133201266
569300986,687450767,-581695097,133641869
568902644,689106589,-580073715,133857693
568388848,690467821,-578751440,134746365
567229241,691847654,-577769679,136753489
565661611,692741902,-577615076,139348232
564669647,692700628,-578177267,141232373
564174971,692112558,-579026298,142607368
564504669,690891337,-580016378,143199673
565073803,689821314,-580679941,143424074
565294277,689381913,-580924925,143675664
564926800,689464281,-581117821,143945477
565016421,689142132,-581577781,143277205
565391968,688104639,-582413207,143388601
566043330,685786735,-584007735,145423430
567263152,682844037,-585376338,148971763
567484493,680942517,-585793498,155068121
566205061,680696224,-585267160,162629448
564966654,681455088,-583990369,168251002
563804142,683426617,-581969542,171131257
563259991,686268587,-579012365,171580292
563095609,690604567,-574080742,171293539
561050712,697414534,-567180856,173359277
557633856,704794180,-560601207,175933572
557774538,709137632,-555302100,174835678
559361980,712161397,-550347574,173126213
559532626,714865163,-546422447,173862459
560501595,715949510,-543830603,174401394
562681172,715552899,-542154448,174218879
563462090,715340347,-541193923,175582762
562653278,715259724,-541229852,178339090
561990914,714171886,-542764988,180116243
561450342,712996912,-544947931,179868112
559976241,712240134,-547830102,178708742
559254264,710705285,-551397784,176091160
559530872,708167495,-555233838,173360883
559768401,705203253,-559101616,172242269
559915812,702248912,-562558524,172576852
559599971,700488315,-564806542,173413050
557802919,700854796,-565718224,174750896
555992897,702064607,-566049944,174593001
555659538,702793263,-566311228,171854609
555562731,703453411,-566388676,169190995
555346120,704119631,-566104558,168078500
554552290,705047570,-565422187,169104823
553296337,706312200,-564499007,171016867
552229183,707589274,-563615741,172098075
552220943,708158852,-562983906,171849629
553342362,708259072,-561812393,171661850
552981506,709942857,-558976936,175091911
549386334,714170279,-554398679,183571425
543003291,720831984,-548071982,195159556
535644458,729571043,-539085639,207641105
528140777,740156756,-527597928,218625478
521240487,750874299,-515531750,227251781
518005575,758464040,-505763403,231354094
520395225,760888362,-500196397,230132992
528278456,757599684,-499649068,224135640
539284236,748367329,-504486227,217981893
552882656,732618646,-514567140,213848517
571771968,709135800,-528123788,210261745
596033223,679770233,-541584023,205583998
615667968,654000967,-550544356,207496526
623724392,636838894,-555100553,224012293
622843473,629325821,-554728010,247399465
617768770,628116475,-551437470,269565481
607824721,633478698,-546788175,288438340
594086725,645159577,-541026295,301731521
577978630,662922590,-533727899,307457905
559391475,685160426,-526171518,306095870
540465723,709818490,-518061776,297637383
517031177,737818577,-508237233,287950782
484227091,769624555,-495811131,283363617
448169321,799101165,-483770336,281897853
414055451,824900939,-473968499,276354595
384585353,844713601,-467741480,269615325
361593504,859009003,-465172959,260547412
346497344,869258399,-465599777,245901949
338954733,875733121,-468337070,227558845
337155949,877370846,-473833739,212012447
340107031,874629787,-481725472,200529230
345907293,868377009,-491895208,192951061
356340634,857408616,-505441891,187940999
370898682,842609595,-522170446,180838365
386130060,826642273,-539224747,172407134
400079069,811319099,-555054243,162893682
412694937,797994038,-568095723,151911614
422106860,788709572,-576988326,140601626
430237237,783795832,-580393737,128933674
437486031,783998102,-576966258,118246045
447000650,788200600,-565690644,108823621
456155037,797184846,-546304549,104356466
459666779,810975938,-520443164,114384607
455296227,829968996,-489348173,131586801
443452547,852158134,-455491126,150401185
422538407,877801285,-419227798,167617339
389600507,904420122,-385852946,185132925
347434008,930672109,-356758589,196936134
308933137,952590674,-334625938,195133989
275821834,970084191,-320446004,181919059
246813133,982783812,-316493774,161159704
222234466,990525741,-322627120,135286240
202967299,993505602,-336076951,108280571
183468427,992556345,-355129794,89304514
165795072,988556017,-377835359,73694590
151085497,982107385,-402242114,61326910
134077327,974465357,-427324917,52491914
116798838,965874985,-451844647,46919452
99644778,955857544,-476462874,48082321
85606757,943696706,-502204571,53104455
80534422,930188504,-527051466,58324646
84073145,915996986,-550098682,64762395
94418880,901096639,-571527926,73397949
110779055,885104533,-592008020,82253673
133938245,868167999,-611043152,88839254
166037900,851518629,-626070241,91131516
204968999,835184270,-636093512,93602845
251146857,820119383,-638697789,96519915
300542312,807502557,-632861600,100107401
341468547,797794505,-621463080,116740181
379571795,791109311,-603515696,136973036
415171492,787932622,-578768308,157300757
446887880,787417851,-549002129,178253911
471144131,790423991,-516902646,197448640
488992386,795423709,-484988789,214231006
500907637,804420449,-451255731,226470858
500989903,819198039,-417823094,237210993
489751797,839225745,-385243869,245666378
472837428,861248256,-356525707,245940789
456265657,881236119,-335835890,235327118
439811930,899295538,-322158411,216714814
418788622,916238277,-317082188,193659017
395765856,931021473,-319526851,165496062
374344808,941811458,-328896763,132685838
351708730,949156492,-344609208,97820858
329999155,951503312,-366254893,67235429
316239710,948568144,-389830294,34105333
304097694,943249560,-413189699,530618
288059411,935748692,-440293747,-21426185
276170502,924551925,-469716622,-34943258
270522063,910611067,-498797419,-41568473
268884094,895236261,-526846938,-40082185
274535165,878693477,-551603814,-34392105
286820187,861762164,-572205959,-24535657
307212836,843941371,-588358609,-11754473
335351455,824537389,-600487503,3694523
365094506,805235591,-608842186,23075184
394493041,786810072,-613412271,44153223
422817097,769279025,-614672205,67341482
448098647,753711029,-612875247,91813681
471211451,740307868,-607729098,116148878
493674165,729180913,-598426639,139241041
513487113,720943629,-586338999,160290813
529882968,716540919,-571958462,177702339
540517586,718560234,-554433300,192450378
544075467,724966932,-537918738,204865095
544159143,734766922,-521509038,212033392
542978269,745728069,-506327246,213584735
539719447,757532870,-493213350,210971481
532610772,769848131,-483505100,206891129
525558542,780919483,-475783157,201257329
521231838,788939486,-470404455,193731051
520260742,793676993,-467062083,184874204
521083080,796452377,-465046005,175466272
523258717,798594582,-462812181,164841288
528413658,799243244,-460169836,152165562
537650309,797546027,-456985456,137609747
550320831,792985463,-453823208,123637462
563743442,787026194,-450378749,113417768
573073412,783667224,-445171672,110436544
573946705,784845587,-440257073,117037585
569388014,788221409,-436040291,131509199
562670985,791286757,-432922454,150845998
554469219,793850509,-430821653,172270181
545216466,795265984,-430891730,193764615
538941320,792803139,-434540332,212340561
540052297,783502607,-443231433,225686913
549570581,767031232,-456551813,232629677
563635106,745251788,-473418745,236032708
578715438,719968347,-492486326,238982698
593999867,691840343,-512357956,242758531
608093072,661756639,-532376596,248588454
617660814,634063263,-550448740,257648052
621498364,611379882,-565195639,270968280
621341635,593895711,-576077576,286832129
618309926,581395291,-583926173,302687512
614046995,573049960,-590099424,315057831
610578273,567552240,-595982082,320630016
609677191,563320827,-602842854,316960042
611015815,559011128,-611338774,305533406
613748303,554441437,-620579597,289322486
615798067,551189027,-629507118,271334383
617802976,548103151,-638379651,251577455
620500725,544644544,-647079711,229227144
623551021,540936435,-655174288,205505960
626661289,537653964,-661667338,182569934
628705061,535206480,-666735479,163270638
628721545,533287861,-671381858,149897264
626830300,530220211,-677141085,142624326
623821980,524168173,-685233620,139508792
620496184,514914257,-695558427,137703799
619488413,501634403,-706813851,133894765
621031018,484450703,-718264376,128996297
623204950,464985284,-729857455,125007062
626117946,442780854,-741618359,121802054
629233951,418936752,-753413103,117619147
632972032,393827740,-765075816,108721716
636659027,368135924,-776702780,93757804
639667700,343827856,-787409614,74236657
641025278,324086673,-796255587,54305980
640583213,310241697,-803121629,36283025
639248400,300403746,-808518204,18292660
638399787,292319170,-812349374,-845689
637287859,286755524,-814978154,-19046150
634709173,285528897,-816975212,-32938047
630786300,286690050,-819170826,-42233297
627906584,286431029,-820966159,-51142305
625381941,284312859,-823162443,-58137351
622720051,280873223,-825897716,-64324613
620913862,275479054,-828352559,-72973559
620742213,267459764,-830361901,-80990278
621192867,258448086,-832277835,-86909653
620570621,249736066,-834664278,-93678029
618967149,240307898,-837157573,-105904820
618290369,228739480,-838463123,-123660927
619069154,214963073,-838353178,-143614103
622097863,199840000,-836466383,-162164547
627071137,186428420,-832933374,-176520376
630815549,176998512,-830503271,-184159124
632258612,170517992,-830615712,-184838407
631232718,165427672,-833233953,-181125819
630327173,157501052,-836173189,-177772589
628925868,147192121,-839006192,-178226333
625748586,136492026,-842928863,-179421253
621073200,125686487,-847652839,-181304703
615442119,113714758,-852948404,-183568123
608951528,99911169,-858731170,-186270008
602067706,83124028,-863755968,-193523465
594689895,64528498,-867734035,-205277626
584684044,48685892,-872111276,-219357315
571857096,36160096,-876893885,-235903641
558303150,24867075,-881152637,-253308647
546621051,14253488,-884500316,-267549510
537075676,4427977,-886938112,-278912669
527455158,-4256512,-888524167,-291923062
517089486,-11484508,-889868344,-305841732
507123533,-15967166,-891866302,-316333332
497900942,-18809158,-894498547,-323318291
490416206,-21473839,-896519735,-328944780
485051688,-25546461,-897838476,-332986130
481630140,-32649755,-896827310,-339983233
480603997,-41627679,-893363992,-349441153
482600087,-50589556,-889047439,-356446260
488166933,-59249158,-883950007,-360189453
495917731,-68177797,-877529503,-363704361
504535488,-75853855,-871320692,-365255925
512852347,-82539189,-866852219,-362838260
520330014,-89657865,-861983775,-362107733
530041508,-98586303,-854709991,-362944939
542224277,-107561962,-846832532,-360859264
555637148,-112920898,-840429556,-353712757
567131917,-111528377,-836921341,-344103160
574782338,-103478138,-836584799,-334611585
578255460,-90955025,-838895271,-326380180
579336210,-77242933,-842266653,-319235740
579591903,-61696075,-846673743,-310373774
580083879,-47231800,-851172596,-299497156
579849042,-37019320,-854493837,-291832874
577791305,-29186765,-856740030,-290212602
573876356,-21240237,-858445999,-293609855
568905193,-13005899,-859309491,-301141879
564014008,-4361655,-859060809,-311135353
560017339,5663987,-858334407,-320194510
557452522,17097833,-858161795,-324699156
555438970,28494240,-858883441,-325443268
553326560,38677409,-860388409,-324014207
551513278,46550015,-862763784,-319726763
550637459,51629754,-865765136,-312256455
550608662,53152108,-869071801,-302720621
550714435,51796115,-872172265,-293712275
550937541,48942180,-874637867,-286359241
552151361,45177723,-876502092,-278840568
554922560,39941984,-877704291,-270221315
559020539,33042358,-878213764,-260883211
563351657,26225386,-878182270,-252318343
565090397,22056271,-879448842,-244290004
564417757,20470713,-881550876,-238334020
561950820,20253922,-883771923,-235922180
558954109,21408055,-886052597,-234388772
556901553,23730020,-887403935,-233942624
556038883,27839663,-887590709,-234832879
555504336,36011132,-887956973,-233599999
554197137,47784228,-888959118,-230766326
551516311,61984740,-890482538,-227922904
547745701,77585171,-892299128,-225119113
544702092,92726685,-893334149,-222658723
542814290,106090893,-893592218,-220253929
541723492,118647229,-893070137,-218645182
541357025,132430794,-891362297,-218607886
541444652,149626353,-889150318,-216293439
542088660,170383243,-886736294,-209116401
543361933,193250736,-883601764,-198950620
545977294,216024161,-879075689,-188121312
550575252,237756578,-872687511,-177977057
556783667,259834171,-864860526,-165565305
563542599,283965956,-855830639,-149192824
570408134,310191680,-845461117,-128579496
577887559,336520880,-833530549,-104632605
587228169,360572408,-819693321,-78580556
595631886,382757730,-805723768,-49493513
602355185,404400938,-791383968,-16134809
606816720,427266135,-775865812,13024985
609053356,449953996,-760502756,33924834
611294871,469799335,-745620067,50767553
613935448,485813999,-732048201,63970504
617006575,497592160,-720514147,74040526
620709623,506056582,-710626673,80944313
625288870,511591729,-702017482,85860331
629620657,516142548,-694152687,90748159
633622375,520682847,-686257585,96840661
636874052,526134908,-677887019,104686507
638701059,533270298,-668904774,114748586
638688030,541537230,-659942756,127309364
638145147,549117006,-651523603,140268375
638291078,557460602,-641952746,150452070
636683423,569959151,-629745076,161612007
631225436,586338795,-615890623,177049310
623510159,604627291,-600733234,194151181
615279989,624346972,-583539052,209813988
607795117,645323089,-563199815,223314388
600585265,667704971,-538541844,237404809
591847634,691194447,-509795663,254943799
582006008,713511638,-478424982,276045577
571536767,733354214,-445527017,299940830
560430577,750510695,-412072476,325209087
546884848,766742765,-378209668,350572677
530367637,782884610,-346226257,372626759
514963654,797628602,-316839588,388754948
505048412,809577435,-290254534,397723887
499631484,819779691,-265316088,401071707
492959837,830538097,-240063481,403098110
483221234,841604844,-215193670,405970009
473284078,851609022,-191613293,408619456
464365627,859591238,-170759547,411375114
457095738,865253133,-154215017,414171924
452759848,868126608,-142019457,417270524
450562378,868557080,-134151547,421336671
447452964,868273575,-129443754,426672624
442629409,867434453,-128222475,433719424
437501640,865367389,-130238700,442367172
429721356,863495193,-133227234,452644387
416387899,863876925,-135579593,463548708
400813529,865247744,-137512962,474032222
385352063,865842015,-140909254,484651863
372063891,865276601,-147124732,494105799
365107075,863909088,-155523143,499089267
367325307,861822871,-163879744,498394836
378497619,858203037,-170703022,493968957
390883259,854341882,-173195979,490136789
395242248,853814496,-167398865,489571643
390850765,856993955,-154483458,491785119
383589169,860717821,-138766721,495670730
376278893,864336883,-121753255,499433272
369424673,868009196,-104027538,502180000
363289735,871160366,-87230593,504390279
356704731,873887134,-71243979,506881458
349391854,876006413,-56610550,510151783
340309720,877954521,-43865286,514181341
331565104,879242599,-33701346,518442430
325760158,879578596,-25804214,521993276
322304082,879493820,-19329376,524554876
320308909,879080694,-13976503,526635090
320258610,877977767,-9768149,528596789
322141223,875898456,-5825190,530955480
323224480,873251893,-1382218,534673718
319942125,870852808,4346733,540512728
313148146,868966655,11482444,547377802
306234177,868176711,23048571,552158958
298601123,869722713,41206466,552850085
287255217,873647494,63375137,550572060
275693860,877873106,83536899,547059886
267633563,880848359,98017634,543866339
262160146,883101817,108207927,540939602
260057619,885368895,116659171,536473368
263035883,886993579,123586330,530756408
270240096,888357777,129807658,523318477
278118202,889035363,135982908,516425831
283116075,889561541,142580786,510996848
285063054,890199956,148654225,507056723
285774696,890143426,153023839,505452980
284159667,889922573,155347023,506043383
280094489,890700521,155535938,506880456
278299285,891217410,152073162,508011141
279119747,891047040,145276265,509845366
278063942,891765648,137170131,511409278
275246545,892825395,127796249,513509068
272844988,893319450,114302060,517100068
270632788,893399747,97439777,521557073
269111015,893303144,80097869,525445719
270396476,893957150,66582810,525561219
274142493,895583081,59589616,521677407
277387972,898300646,56853397,515558341
279384389,901380012,54296914,509342998
282920599,902946060,48787945,505158975
291273707,902353984,40558426,502188637
302873651,900095142,31279667,500039106
312557924,897646779,25312308,498815055
315675422,896605851,24720726,498752004
315224558,895924106,26648706,500161291
315081654,894983962,28286964,501841801
317349687,893355177,28022094,503329483
321879995,891109496,26673099,504506076
324213133,889277155,27187794,506215095
322678383,888393842,29799355,508593965
320984188,887760232,33252977,510554370
321194780,887149891,37839374,511163177
322960581,886172113,42977075,511340616
324705982,884213719,46915185,513275794
324035226,882021487,50381364,517128500
322349575,879867581,54191736,521447787
319857062,878348433,63301856,524508183
313488471,877953220,79151155,526855932
302090871,879283995,100564516,527644602
287211280,881772349,121760746,527335786
273212334,883284547,135748926,528826165
264244328,883501684,138292953,532349741
263617666,882715451,132162162,535512632
270503683,881317665,122555507,536664311
281387444,879851178,113509599,535459705
289811895,879511153,106767405,532908454
294376575,880561680,100055094,529966055
298567486,882093820,90694454,526748406
304242109,883314901,78225158,523443871
309561917,884641324,63059114,520120196
314797266,885989121,45269608,516521906
322291632,886379670,24531412,512618901
331736084,885638161,1181806,508444814
341633396,883791318,-25360182,504457988
353359058,880422547,-55326593,499853966
368493164,875835861,-87764918,492282941
385722811,870405518,-123897898,480814826
405485259,861645152,-166049831,467438011
428827277,849278502,-209740160,451401354
452772532,836110572,-248601825,432472871
472100566,824625224,-282812667,412374238
485097372,814363539,-314363789,394448257
493732676,804395264,-344866978,378370935
503055836,792818484,-375719432,360735485
516774438,778464516,-406708471,338294925
531177960,763240301,-435664241,313739333
542053496,748986613,-461764728,291362123
551491517,734839368,-485400706,270508265
559607984,720817101,-507193546,250860180
565569628,707349627,-527680534,232942612
569988854,694105985,-547342916,216025056
573774110,680561166,-566344085,199488467
576556714,665848167,-585958964,183853644
579039209,649243214,-606560281,167937364
582888314,630641351,-627053675,149190680
587460713,610503107,-646882102,128999372
590287761,591840273,-664825135,110518636
590802077,574781490,-681668107,93963318
590749586,557491325,-697990030,77133883
590736367,539348895,-713839963,59052444
590075088,521281926,-728977969,39862849
588167908,503905506,-743416771,19765442
585543586,486860991,-756983686,-1493616
582501208,470390396,-769297269,-22987023
579536697,454831241,-779938563,-43394508
576743555,439980847,-789306277,-60834390
574441211,425356014,-797639975,-76036352
573250978,410327896,-804794120,-90786893
572974258,396561764,-810251185,-104181501
572778208,386079477,-813921068,-115419926
572692756,379656627,-815786382,-123684812
573359027,376338719,-816076331,-128722642
574736348,374813141,-815620808,-129913188
575050908,374556433,-815596190,-129415168
573246717,375108412,-816041029,-132967746
570062768,375307378,-816751917,-141458907
566306612,374275147,-818181482,-150716630
563050048,369774612,-820757929,-159708505
560951484,361624619,-823448647,-171481900
559943329,350974195,-825867790,-184762155
559767188,338706520,-828331847,-196772070
560544509,325747876,-830488363,-207076078
561521934,313288926,-832714413,-214573119
562041790,302008874,-835348981,-219095006
560548798,292184100,-839513128,-220328042
556893351,282586444,-844907483,-221502593
551809954,272110240,-850310939,-226612779
545155265,261708122,-855501395,-235272928
537739730,250987565,-860902983,-244144425
531243944,237674641,-866073138,-253237912
527053340,221399080,-870411760,-261728659
523628241,205749181,-873755700,-270097298
520716030,191896455,-876656129,-276450060
519170049,177584033,-879413498,-280138673
519100696,160925090,-882182053,-281623475
519917645,141840593,-885034083,-281427242
518475390,123039889,-888138715,-283148625
513507060,108585049,-890404291,-290887097
507310164,97729214,-892403884,-299369691
501745059,90909984,-895373033,-302019709
497211684,85872582,-898872429,-300593242
491768001,81411713,-901264657,-303611384
486036893,76911327,-902449239,-310418457
481845668,72352515,-902813074,-316922455
479956474,67795625,-902382598,-321982271
480100573,63220115,-901012106,-326504582
481288371,58997770,-899194441,-330532209
481516019,56883137,-898188205,-333295664
480844425,57265119,-897321765,-336518063
480217219,60926585,-896764249,-338252360
480662244,66054739,-897055701,-335876550
479519683,71503739,-898210069,-333298896
478002824,76619077,-898865317,-332573792
477270503,81394660,-898369712,-333827786
479326098,86217777,-896884349,-333665762
484281994,91515885,-895309209,-329300261
489393135,99850732,-895096171,-319763217
492055447,113316965,-895708489,-309303242
492363939,128619216,-896185568,-301343271
491590561,144980766,-897489127,-291125492
490686205,158997174,-899600998,-278543490
490995316,167437476,-900736221,-269228600
490945683,172526979,-900983427,-265249180
489698872,175940563,-900950972,-265421855
486366342,179373450,-901479047,-267450815
484115111,182089792,-902110024,-267572079
483761287,183443785,-902446636,-266148281
485156294,183273344,-902333234,-264103091
487877598,182120427,-901839404,-261562156
490591096,180655035,-901289829,-259388249
492889403,179466671,-900682420,-257962053
496050029,176712281,-900246035,-255314931
499141447,172688058,-900498654,-251118154
501106405,169123209,-901011205,-247770102
502723899,166047079,-901268386,-245629499
506587078,161231259,-900291821,-244479359
513085443,155636379,-898869585,-239726905
519416360,153324895,-898413133,-229066544
523129460,155892188,-898150953,-219724344
522587251,164300002,-898166724,-214767805
518704724,178376356,-898799311,-210252860
513326194,194821097,-899964577,-203764200
510887285,209147037,-899350575,-198324016
512082867,221578451,-896471327,-194748589
515260668,234206946,-892277882,-190815792
518512029,248959407,-887418189,-185936899
520837805,266833202,-882420800,-178274048
522191194,286432911,-877502812,-167874526
523495412,306223735,-872070937,-156820484
525321101,324823164,-866104043,-145988195
528137154,342270255,-859330500,-135627014
532379336,358903630,-851284817,-126475631
537359192,377150799,-841650857,-116391566
542194534,398336699,-830470152,-102926068
546955914,422284072,-817238542,-86935655
551536393,448812013,-801528857,-69621962
556005958,476901549,-783479190,-50007029
560019006,505625967,-763475642,-27203209
560397449,534799931,-743543448,-574452
559234229,561716506,-723839417,26516305
558160864,585391764,-704325293,51136897
555636837,607344919,-685786181,70820133
552868522,626961945,-668774570,83159721
551878040,642813419,-653515380,89774232
552902074,654792258,-640084986,93581197
555169478,664437445,-627426250,97799124
557404117,673318833,-614778954,104432465
559673830,682263038,-601259072,112624628
562406471,692242090,-585254827,122011734
561418836,707496085,-564432592,136330290
554286840,728539677,-538952289,156350983
545617172,751368728,-509162534,177261991
538779454,773744287,-474790093,196268218
532190271,795491974,-436232862,215843511
523964788,816185974,-394739941,237492387
513915889,835343443,-350952828,260460422
501867737,852135942,-306328899,284740621
487622419,866400814,-262967524,308777525
473175090,878245532,-221295393,329757067
461280921,887201178,-181040895,346754633
454195534,891925815,-143309820,361326440
451281711,893135054,-109753078,373534585
450332807,891972840,-79007757,385047568
444576630,891453434,-49416210,397663097
431366634,892690747,-21668207,411676044
415972675,893847797,2436855,425345002
400321059,895004841,23150567,437144074
382815032,897730635,41236939,445817646
368106597,900464060,56796585,450951112
357079989,902667676,69528326,453621280
347094647,904577681,78498942,456096412
337424191,905741465,81479798,460499497
328407251,906800107,79691065,465223338
319876862,907919930,75018010,469737121
314570298,909311320,69468600,471477417
317265948,909536588,63959015,470015794
324115043,908687104,61063870,467364199
325628835,908638939,61490737,466348631
320632837,909835057,64353035,467091001
315869237,910482919,67265349,468658103
311812285,910488611,70918049,470822549
306643641,910335096,74769336,473909386
301692728,909656959,78644994,477746781
296551603,908684860,83038638,482052915
290692712,907608617,88564245,486643833
284520956,906448520,95064862,491205744
277979952,905628355,102781836,494894914
271634313,905372247,111612032,496970969
267305878,905302540,120363569,497398484
265749235,905126469,128373962,496553167
267433958,904424154,135599642,495002343
270893507,903232241,143206393,493154802
274681074,901260231,150875929,492380048
277754960,897662175,156662236,495411423
277696360,893452485,160720212,501714216
273714202,890615407,168344436,506425032
268625996,888630283,184212687,507112785
260077155,887373616,204955608,505808485
247672384,886764553,225673599,504281617
234731843,886841871,241884912,502817618
