4814.77
4817.51
4813.96
4800.71
4776.46
4747.8
4732.11
4754.31
4833.28
4964.27
5105.33
5176.65
5079.48
4728.25
4086.23
3188.67
2141.3
1093.96
196.449
-445.062
-794.938
-889.654
-814.288
-667.633
-529.285
-441.446
-409.434
-414.807
-433.531
-448.63
-453.96
-451.059
-442.86
-437.783
-432.429
-426.256
-419.308
-411.806
-404.066
-396.683
-390.002
-384.376
-379.871
-376.299
-373.527
-371.101
-368.632
-365.666
-361.836
-357.286
-352.344
-347.695
-343.916
-341.267
-339.804
-339.089
-338.623
-337.824
-336.259
-333.988
-331.221
-328.373
-325.641
-322.887
-319.91
-316.284
-311.708
-305.936
-298.816
-290.472
-281.018
-270.728
-259.856
-248.669
-237.64
-227.111
-217.328
-208.209
-199.362
-190.38
-180.846
-170.74
-160.408
-150.482
-141.746
-134.661
-129.312
-125.273
-121.807
-118.359
-114.662
-110.985
-107.854
-105.765
-105.002
-105.346
-106.239
-106.865
-106.457
-104.663
-101.521
-97.5338
-93.4101
-89.8639
-87.5823
-86.8961
-87.7925
-89.7699
-91.9393
-93.292
-92.8814
-90.1666
-85.1947
-78.645
-71.7647
-65.8498
-61.9627
-60.5167
-61.1084
-62.7374
-64.0982
-64.1053
-62.2409
-58.6925
-54.337
-50.3019
-47.5855
-46.6209
-47.1201
-48.2319
-48.8184
-47.9452
-45.1518
-40.6501
-35.3159
-30.3418
-26.8667
-25.5617
-26.4378
-28.8592
-31.7073
-33.8704
-34.6063
-33.847
-32.3137
-31.1633
-31.5627
-34.104
-38.5031
-43.6645
-48.0288
-50.2194
-49.537
-46.1982
-41.2177
-35.928
-31.4504
-28.2991
-26.2939
-24.847
-23.2657
-21.1562
-18.5389
-15.7903
-13.4605
-12.0088
-11.6571
-12.2923
-13.4817
-14.6385
-15.15
-14.6097
-13.0361
-11.0076
-9.71382
-10.7456
-15.6675
-25.4098
-39.6908
-56.7632
-73.4487
-85.7214
-89.6305
-82.4709
-63.7194
-35.4756
-2.23652
30.1262
55.7939
70.4456
72.3424
62.595
44.6869
23.321
3.07582
-12.6674
-22.361
-26.2249
-25.7384
-22.9295
-19.6893
-17.4228
-16.8156
-17.9285
-20.3855
-23.5346
-26.6669
-29.1621
-30.6457
-31.0704
-30.7368
-30.1731
-29.9173
-30.2978
-31.3352
-32.7006
-33.9189
-34.5996
-34.6564
-34.4223
-34.5124
-35.5693
-37.9546
-41.5325
-45.7336
-49.7634
-52.9332
-54.9496
-56.0312
-56.7842
-57.902
-59.8939
-62.8985
-66.6845
-70.8383
-74.9541
-78.7578
-82.1437
-85.1391
-87.7828
-90.0707
-92.0067
-93.6196
-94.9634
-96.0746
-96.846
-97.016
-96.1529
-93.8029
-89.6541
-83.6824
-76.1364
-67.4773
-58.2083
-48.7574
-39.3828
-30.237
-21.3502
-12.7267
-4.41318
3.52199
10.9827
17.8317
23.8886
28.9207
32.6786
34.9571
35.6647
34.8871
32.9045
30.2272
27.4835
25.2863
24.0678
23.9566
24.7468
25.9506
26.9217
27.1144
26.1768
24.1087
21.2486
18.1812
15.5515
13.916
13.577
14.4839
16.2435
18.2758
19.9764
20.9014
20.9346
20.3073
19.4883
18.9988
19.2387
20.3104
22.0024
23.8609
25.3906
26.255
26.3647
25.9231
25.2947
24.8371
24.7456
24.9827
25.3
25.3804
24.9928
24.0817
22.8713
21.7704
21.2336
21.5374
22.6896
24.3676
26.0053
27.023
27.0491
26.0802
24.4529
22.7102
21.3585
20.6779
20.6239
20.9081
21.1722
21.1552
20.7875
20.2171
19.6729
19.272
18.9918
18.5912
17.7003
15.9668
13.2501
9.69531
5.77593
2.1372
-0.551614
-1.85514
-1.6948
-0.358086
1.59595
3.627
5.40113
6.88726
8.34569
10.1243
12.4588
15.272
18.1946
20.7046
22.3628
23.0156
22.9375
22.6888
22.8321
23.5591
24.4382
24.3738
21.812
15.1976
3.55389
-12.9828
-32.8226
-52.9391
-69.2907
-77.6147
-74.4829
-58.3669
-30.4038
5.52738
43.4685
76.7274
99.5661
108.667
103.878
88.0646
66.0434
43.0672
23.3258
9.06142
0.402335
-4.07783
-6.37138
-8.12818
-10.1545
-12.3887
-14.2962
-15.3463
-15.3353
-14.5294
-13.4843
-12.7682
-12.74
-13.4685
-14.7981
-16.4823
-18.2893
-20.0741
-21.7603
-23.3158
-24.691
-25.8204
-26.6694
-27.2467
-27.6197
-27.9366
-28.3885
-29.178
-30.4939
-32.5269
-35.4631
-39.4453
-44.5049
-50.4676
-56.9156
-63.2723
-68.9362
-73.5019
-76.8863
-79.3487
-81.3652
-83.382
-85.6478
-88.1079
-90.5129
-92.5786
-94.174
-95.3588
-96.3309
-97.1858
-97.7548
-97.507
-95.6989
-91.6094
-84.8655
-75.633
-64.5938
-52.7399
-41.0421
-30.144
-20.2578
-11.2629
-2.92235
4.89509
12.0713
18.261
23.0821
26.3329
28.1531
28.9972
29.5197
30.341
31.8309
33.9773
36.4188
38.5834
39.9086
40.0372
38.9225
36.8434
34.293
31.8187
29.8583
28.6097
27.9838
27.6506
27.1729
26.1906
24.5599
22.4424
20.3182
18.8122
18.5217
19.7724
22.5272
26.3343
30.4572
34.0655
36.4406
37.1488
36.1291
33.6785
30.3729
26.9348
24.0973
22.451
22.3097
23.6252
25.9872
28.7516
31.2048
32.7718
33.217
32.6922
31.6492
30.6455
30.1043
30.1524
30.5608
30.8997
30.7082
29.7736
28.2263
26.545
25.3166
25.0492
25.8828
27.5289
29.3342
30.5435
30.6063
29.4579
27.5212
25.576
24.4349
24.5801
25.9655
28.0209
29.8736
30.7167
30.1154
28.1368
25.2477
22.1028
19.2511
16.9396
15.0811
13.3983
11.5931
9.5231
7.26579
5.03903
3.11115
1.70662
0.931672
0.832337
1.4799
2.95213
5.34205
8.63984
12.6392
16.9184
20.917
24.0659
26.0102
26.7575
26.5965
26.0327
25.6015
25.7146
26.5578
28.0627
29.8406
31.1645
31.0085
28.1109
21.1625
9.25742
-7.61703
-28.1602
-49.6033
-67.9811
-78.8642
-78.4765
-64.7913
-38.4175
-2.79955
36.3577
72.3498
99.0787
112.529
111.645
98.3726
76.8768
52.2076
28.9639
10.3191
-2.4357
-9.58999
-12.4163
-12.4659
-11.0604
-9.1182
-7.23544
-5.81137
-5.12842
-5.39473
-6.6667
-8.7154
-11.0957
-13.2711
-14.8097
-15.5576
-15.7
-15.7056
-16.127
-17.4262
-19.7722
-22.9672
-26.5017
-29.7215
-32.073
-33.2601
-33.3768
-32.8591
-32.3624
-32.5267
-33.7548
-36.1547
-39.5262
-43.4899
-47.6159
-51.5632
-55.1752
-58.4886
-61.6678
-64.9308
-68.4669
-72.321
-76.3817
-80.3857
-84.0239
-87.003
-89.1891
-90.5989
-91.3488
-91.53
-91.0956
-89.8155
-87.3598
-83.4547
-78.0045
-71.1818
-63.3619
-54.9988
-46.4569
-37.918
-29.3695
-20.6831
-11.7769
-2.66496
6.48758
15.3934
23.6778
30.9299
36.7246
40.6967
42.6328
42.6017
40.9817
38.4128
35.6537
33.3315
31.7715
30.8737
30.2572
29.4897
28.3207
26.8223
25.3579
24.3794
24.2229
24.9701
26.4056
28.0953
29.6035
30.6177
30.9962
30.7701
30.0465
28.9514
27.5786
26.0162
24.3668
22.8028
21.5693
20.924
21.0535
22.0296
23.762
25.9884
28.4031
30.6995
32.6413
34.0856
34.9114
35.0449
34.4217
32.9874
30.8222
28.1872
25.5031
23.309
22.0913
22.0993
23.2438
25.144
27.246
28.9944
30.0196
30.2156
29.6982
28.7141
27.5234
26.3204
25.2449
24.412
23.917
23.81
24.104
24.7365
25.5491
26.3286
26.8208
26.7999
26.1005
24.6365
22.4441
19.6813
16.6142
13.5544
10.7613
8.32452
6.16667
4.08087
1.88204
-0.374101
-2.33156
-3.34655
-2.74269
-0.105147
4.46331
10.2733
16.1964
21.0556
23.9988
24.7579
23.7653
21.9307
20.2642
19.552
20.1042
21.7129
23.8073
25.6707
26.6772
26.3515
24.326
20.2287
13.5929
3.93902
-8.93631
-24.5271
-41.2306
-56.2227
-65.7963
-66.1718
-54.6722
-30.8872
2.7358
40.9889
76.9836
103.901
116.856
114.221
98.0238
73.156
45.782
21.5651
4.15482
-5.45901
-8.59247
-7.9078
-6.18087
-5.35859
-6.15998
-8.18839
-10.5113
-12.2181
-12.8432
-12.5324
-11.8566
-11.5001
-11.9746
-13.4323
-15.6576
-18.1621
-20.3679
-21.8544
-22.4483
-22.2828
-21.7615
-21.4452
-21.8575
-23.3103
-25.8291
-29.1534
-32.7988
-36.2124
-38.9413
-40.7696
-41.8393
-42.5957
-43.7059
-45.816
-49.2916
-54.0721
-59.6217
-65.1118
-69.7207
-72.9633
-74.8844
-76.0248
-77.1259
-78.7668
-81.0698
-83.6521
-85.7835
-86.727
-86.0792
-83.9471
-80.8507
-77.4332
-74.1803
-71.1445
-67.9283
-63.8724
-58.3047
-50.825
-41.4577
-30.647
-19.1301
-7.80063
2.49567
11.0946
17.62
22.0716
24.7859
26.3972
27.6403
29.179
31.3762
34.1906
37.1999
39.7684
41.2442
41.192
39.5051
36.4148
32.4315
28.1638
24.1876
20.9796
18.814
17.7415
17.6163
18.1451
18.9603
19.7454
20.3143
20.6584
20.9243
21.3096
21.9348
22.777
23.6503
24.2816
24.4703
24.2303
23.7867
23.5136
23.7778
24.7198
26.1446
27.5533
28.3447
28.0682
26.6551
24.49
22.2901
20.8363
20.6466
21.7485
23.6958
25.7434
27.172
27.624
27.2438
26.5635
26.2619
26.8331
28.3084
30.2118
31.7717
32.2402
31.2304
28.8659
25.7274
22.6044
20.1656
18.707
18.1204
18.0316
18.0277
17.9062
17.7574
17.8753
18.5643
19.9109
21.6882
23.4277
24.5311
24.5283
23.1893
20.5783
16.9206
12.4882
7.51868
2.22287
-3.15072
-8.19299
-12.2897
-14.7329
-14.8803
-12.3851
-7.35666
-0.391046
7.51527
15.2003
21.6128
26.0388
28.2194
28.3631
26.9905
24.7188
22.138
19.6565
17.4988
15.7918
14.5607
13.7015
12.8794
11.461
8.49498
2.86137
-6.3407
-19.3038
-34.9846
-50.9191
-63.435
-68.3708
-62.2222
-43.4161
-13.2124
24.1128
62.037
93.3622
112.154
115.358
103.594
80.8354
53.0876
26.5748
6.03723
-6.26032
-10.6776
-9.43595
-5.56818
-1.78943
0.228364
-0.0217608
-2.0927
-5.07257
-8.05086
-10.4688
-12.2497
-13.7042
-15.3099
-17.4598
-20.261
-23.4019
-26.2575
-28.1046
-28.4649
-27.3134
-25.1495
-22.8258
-21.3124
-21.3217
-23.0937
-26.3622
-30.4723
-34.6354
-38.2124
-40.9363
-42.9413
-44.7009
-46.8334
-49.8806
-54.1139
-59.4447
-65.4777
-71.6066
-77.2199
-81.8448
-85.2239
-87.3537
-88.4415
-88.7696
-88.6567
-88.3721
-88.1074
-88.0117
-88.1395
-88.4739
-88.8943
-89.1738
-88.9878
-87.9551
-85.6493
-81.6643
-75.6486
-67.3699
-56.8247
-44.3539
-30.6668
-16.7541
-3.68858
7.60108
16.6005
23.2667
27.9387
31.1449
33.3513
34.7973
35.5495
35.5584
34.8541
33.6556
32.3661
31.4382
31.206
31.7237
32.7494
33.8253
34.4525
34.2934
33.3149
31.7619
30.1159
28.8664
28.3561
28.6484
29.4811
30.3659
30.7189
30.1085
28.42
25.8884
23.0874
20.7611
19.5453
19.7666
21.3531
23.8729
26.7178
29.3257
31.3092
32.5743
33.2333
33.5207
33.6256
33.5952
33.3482
32.7512
31.7168
30.3082
28.819
27.6977
27.3361
27.9392
29.3781
31.209
32.8375
33.7315
33.6465
32.6724
31.1797
29.6185
28.303
27.37
26.7497
26.2657
25.7573
25.1869
24.625
24.2002
24.0182
24.1168
24.4704
24.9944
25.5856
26.1006
26.3901
26.25
25.4639
23.8397
21.2515
17.7228
13.4468
8.74181
4.05859
-0.0793356
-3.1479
-4.68045
-4.40437
-2.32772
1.22152
5.63225
10.16
14.1612
17.293
19.563
21.2168
22.535
23.5849
24.1662
23.9194
22.5357
20.0744
17.0855
14.5176
13.3883
14.3158
17.1452
20.7675
23.3788
22.9056
17.5872
6.60839
-9.50258
-28.785
-48.0329
-63.2916
-70.5869
-66.8034
-50.5989
-23.0767
12.0688
49.0879
81.3811
103.141
110.874
104.346
86.5257
62.548
38.0842
17.7236
3.89698
-3.37128
-5.78271
-5.74072
-5.28545
-5.52361
-6.61704
-8.12554
-9.52436
-10.5175
-11.2176
-11.9807
-13.1812
-15.0322
-17.5034
-20.3393
-23.1291
-25.4114
-26.7929
-27.0879
-26.3922
-25.1057
-23.8123
-23.1376
-23.5263
-25.0871
-27.5976
-30.634
-33.8048
-36.8908
-39.9066
-43.0094
-46.3674
-50.0361
-53.9266
-57.8539
-61.6736
-65.343
-68.8949
-72.3684
-75.6949
-78.696
-81.1285
-82.8445
-83.8765
-84.45
-84.9454
-85.7262
-87.0005
-88.7333
-90.6587
-92.3477
-93.3362
-93.1541
-91.4089
-87.7978
-82.133
-74.4393
-64.9456
-54.1262
-42.6031
-31.0228
-19.9017
-9.55424
-0.113546
8.40748
16.0173
22.6033
27.9304
31.7477
33.8923
34.4423
33.7812
32.4978
31.2615
30.6229
30.875
31.9492
33.4781
34.9255
35.7623
35.5875
34.2766
32.0034
29.1918
26.4129
24.2096
22.9541
22.7572
23.4805
24.7881
26.2686
27.5588
28.4393
28.8441
28.8443
28.6168
28.3861
28.3378
28.5871
29.187
30.0904
31.155
32.1814
32.8928
33.0013
32.2837
30.7151
28.5227
26.2114
24.4142
23.7243
24.4267
26.4182
29.2084
32.0757
34.3276
35.5251
35.5901
34.7705
33.4694
32.0271
30.5709
28.9991
27.1096
24.7772
22.1195
19.5521
17.6832
17.0948
18.065
20.4144
23.498
26.3678
28.0727
27.9124
25.6598
21.6131
16.4758
11.091
6.23533
2.40072
-0.230701
-1.7188
-2.20259
-1.74739
-0.311332
2.18007
5.74136
10.1704
15.0221
19.6533
23.4325
25.9225
27.0191
26.959
26.1884
25.1675
24.2368
23.5283
22.9915
22.4744
21.7994
20.7487
18.9673
15.786
10.2582
1.41351
-11.2927
-27.4538
-45.2375
-61.3242
-71.4873
-71.661
-59.2667
-34.3279
0.0619121
38.1558
72.9034
97.8548
108.878
105.208
89.4326
66.5061
42.0679
20.8499
5.56256
-3.33443
-7.07515
-7.65249
-6.93029
-6.12313
-5.74314
-5.85636
-6.42518
-7.43577
-8.91764
-10.7878
-12.8019
-14.6442
-16.109
-17.2291
-18.2679
-19.5802
-21.3602
-23.4837
-25.5217
-26.9837
-27.6153
-27.5562
-27.2879
-27.4597
-28.5654
-30.7101
-33.5801
-36.6028
-39.2174
-41.1462
-42.4818
-43.6439
-45.1745
-47.4907
-50.6904
-54.5704
-58.7279
-62.724
-66.2567
-69.2644
-71.8592
-74.2144
-76.43
-78.4286
-79.9933
-80.8392
-80.7363
-79.6184
-77.5865
-74.8769
-71.7835
-68.5324
-65.2263
-61.8426
-58.2414
-54.1975
-49.4404
-43.7098
-36.8076
-28.6972
-19.5787
-9.84478
-0.0876184
9.04006
17.0051
23.5475
28.6482
32.4805
35.3116
37.3266
38.5392
38.8607
38.1481
36.3651
33.6656
30.4168
27.1698
24.5115
22.8937
22.4663
22.9952
23.906
24.4954
24.1988
22.8201
20.6226
18.2567
16.5123
15.9767
16.7973
18.6571
20.9066
22.8723
24.0753
24.4228
24.172
23.7773
23.6269
23.9058
24.5779
25.4227
26.1562
26.5944
26.6842
26.52
26.2274
25.9209
25.6304
25.3232
24.9537
24.5249
24.1503
24.0685
24.5585
25.8128
27.7716
30.0653
32.0763
33.1037
32.5913
30.3336
26.5717
21.8808
16.9079
12.171
7.94842
4.31819
1.36054
-0.694539
-1.43932
-0.425188
2.53143
7.12706
12.5411
17.6545
21.4368
23.3265
23.4459
22.5063
21.4972
21.2653
22.1595
23.9313
25.9407
27.4672
28.0476
27.5697
26.2786
24.4498
22.1466
19.0036
14.1687
6.64413
-4.26327
-18.4773
-34.6747
-50.1946
-61.3574
-64.2794
-56.0348
-35.7883
-5.48036
30.1988
64.8094
91.7866
106.247
106.306
93.4405
71.8732
47.1095
24.3064
6.95781
-3.69206
-8.36935
-8.96654
-7.63168
-6.04707
-5.15759
-5.1976
-5.97107
-7.08288
-8.1337
-8.88829
-9.25073
-9.35336
-9.6234
-10.6499
-12.9702
-16.7705
-21.6916
-26.7995
-30.861
-32.7843
-32.1085
-29.2474
-25.3901
-22.1124
-20.8059
-22.1975
-26.149
-31.7935
-37.892
-43.3197
-47.426
-50.141
-51.9406
-53.558
-55.6854
-58.7742
-62.907
-67.8199
-73.0006
-77.8737
-81.9986
-85.1625
-87.4172
-89.0523
-90.4129
-91.7614
-93.1135
-94.2493
-94.7705
-94.2516
-92.3645
-88.9785
-84.1361
-77.9557
-70.5603
-62.0463
-52.5237
-42.2145
-31.4781
-20.8005
-10.6913
-1.56682
6.32326
12.9199
18.3116
22.6208
25.9475
28.3898
30.0651
31.1354
31.8139
32.3392
32.8561
33.408
33.883
34.0817
33.7894
32.9133
31.5186
29.8256
28.1457
26.7443
25.7056
24.8973
24.0485
22.8807
21.2495
19.277
17.3014
15.789
15.1145
15.4187
16.5727
18.2282
20.0077
21.6077
22.8918
23.9003
24.7593
25.5439
26.2296
26.6924
26.7619
26.2705
25.2068
23.7179
22.0643
20.5926
19.6198
19.3232
19.7044
20.5698
21.6146
22.5578
23.2839
23.8903
24.6223
25.6683
27.0122
28.2385
28.5972
27.2475
23.5909
17.6413
10.1225
2.36091
-4.10185
-7.93625
-8.44803
-5.73225
-0.597539
5.7528
12.0957
17.5085
21.5538
24.2556
25.9163
26.8927
27.458
27.7032
27.6192
27.1714
26.3302
25.1692
23.8279
22.5723
21.6818
21.3769
21.6459
22.1094
21.8578
19.4862
13.4251
2.5018
-13.3614
-32.6316
-52.0111
-66.9077
-72.5314
-65.2957
-44.1323
-11.2224
28.2203
67.1012
98.2448
116.264
118.919
107.454
85.9797
60.058
35.0241
14.7188
0.812533
-7.04954
-10.4808
-11.4176
-11.3223
-10.9367
-10.3652
-9.48337
-8.30149
-7.12759
-6.52145
-7.01736
-8.86817
-11.895
-15.5879
-19.2711
-22.3406
-24.4634
-25.6527
-26.2095
-26.5354
-26.9831
-27.7483
-28.8332
-30.1059
-31.4571
-32.9206
-34.6757
-36.961
-39.9413
-43.5426
-47.4483
-51.2063
-54.4361
-57.0054
-59.1662
-61.4568
-64.4795
-68.6264
-73.8606
-79.6529
-85.1562
-89.5113
-92.1925
-93.1626
-92.9411
-92.4051
-92.4677
-93.763
-96.3909
-99.7902
-102.845
-104.178
-102.492
-96.9426
-87.3879
-74.4953
-59.5697
-44.1968
-29.8297
-17.4198
-7.24961
1.01314
8.01913
14.4169
20.5876
26.5294
31.9549
36.4483
39.6805
41.553
42.1957
41.8714
40.9076
39.5808
38.1297
36.7378
35.5507
34.6997
34.2709
34.296
34.7236
35.4123
36.157
36.7386
36.9626
36.722
36.0218
34.9399
33.6245
32.2025
30.7804
29.4082
28.1255
26.961
25.9875
25.3383
25.1101
25.3123
25.8763
26.7053
27.7189
28.8841
30.2446
31.8603
33.6759
35.4461
36.7751
37.252
36.598
34.8327
32.339
29.7908
27.9122
27.235
27.8901
29.5645
31.6176
33.344
34.2348
34.1602
33.3645
32.3263
31.4801
30.9972
30.6772
30.0237
28.4822
25.6494
21.4843
16.4088
11.1576
6.54364
3.26545
1.75113
2.05186
3.94095
7.0331
10.9061
15.1487
19.3662
23.1835
26.2452
28.2623
29.0272
28.5008
26.8869
24.5716
22.0912
20.0674
19.0562
19.4577
21.3577
24.4355
27.8805
30.4717
30.7187
27.0936
18.4442
4.41873
-14.1034
-34.8412
-54.2264
-67.9673
-71.9695
-63.5103
-42.2744
-10.8037
25.7962
60.9265
88.1397
102.816
103.341
91.3794
71.1853
48.1768
27.3343
11.9103
2.8481
-0.901023
-1.50084
-1.22211
-1.57434
-3.08171
-5.42673
-7.97695
-10.1736
-11.8248
-13.1255
-14.428
-16.0297
-18.0313
-20.3341
-22.6887
-24.8147
-26.468
-27.4647
-27.7207
-27.2544
-26.2379
-25.0075
-24.0617
-23.9809
-25.2862
-28.2735
-32.845
-38.5484
-44.634
-50.3015
-54.9117
-58.1606
-60.167
-61.3723
-62.3647
-63.6988
-65.7088
-68.4314
-71.6217
-74.8892
-77.893
-80.509
-82.8732
-85.3158
-88.1837
-91.6471
-95.5787
-99.5462
-102.881
-104.863
-104.895
-102.604
-97.8571
-90.7683
-81.6353
-70.9311
-59.2169
-47.0915
-35.1471
-23.8504
-13.5368
-4.38494
3.54118
10.254
15.765
20.115
23.393
25.8015
27.6368
29.2647
30.9687
32.8673
34.8439
36.6161
37.8866
38.4663
38.3732
37.8005
36.9624
35.974
34.8215
33.3432
31.3904
28.9555
26.2345
23.6019
21.4618
20.1213
19.6618
19.9988
20.941
22.3102
24.0255
26.0741
28.4233
30.8525
32.9338
34.0927
33.7862
31.7938
28.3692
24.2463
20.4938
18.151
17.8537
19.6351
22.8785
26.5469
29.5602
31.1416
31.0894
29.7923
28.0098
26.5802
26.1354
26.8986
28.6513
30.827
32.75
33.7974
33.6043
32.1053
29.5648
26.5112
23.5739
21.3162
20.0653
19.8584
20.4601
21.4599
22.4324
23.0078
22.9493
22.1609
20.5959
18.2718
15.2991
11.9144
8.50364
5.56341
3.58816
2.90263
3.53045
5.16002
7.28593
9.36888
11.0472
12.2416
13.1438
14.1307
15.5192
17.4499
19.8012
22.2409
24.3624
25.8687
26.6565
26.8709
26.7877
26.6141
26.2428
25.0934
22.1121
16.0003
5.649
-9.29219
-27.8784
-47.6564
-64.863
-75.1517
-74.6896
-61.3688
-35.775
-1.38813
35.9776
69.5353
93.2435
103.384
99.4597
84.0954
62.0771
38.7981
18.7452
4.49587
-3.54457
-6.63993
-6.82867
-6.09058
-5.71586
-6.23697
-7.57153
-9.36564
-11.2504
-12.9744
-14.3988
-15.4396
-16.049
-16.221
-16.0498
-15.7186
-15.4734
-15.56
-16.1667
-17.4068
-19.2891
-21.7526
-24.6315
-27.6573
-30.4697
-32.6911
-34.0677
-34.5899
-34.5769
-34.6034
-35.2803
-37.0452
-39.9766
-43.7397
-47.7443
-51.3735
-54.2631
-56.4194
-58.2042
-60.1534
-62.7357
-66.1302
-70.1522
-74.3334
-78.1032
-80.9991
-82.7905
-83.524
-83.3869
-82.5553
-81.0783
-78.8296
-75.5666
-71.0504
-65.1967
-58.1586
-50.2868
-42.0231
-33.7575
-25.7308
-17.9626
-10.3559
-2.82756
4.59034
11.7345
18.3496
24.1842
29.1168
33.1716
36.4601
39.101
41.1177
42.4417
42.916
42.3889
40.8573
38.5222
35.7515
32.9757
30.5711
28.714
27.3391
26.2084
25.0796
23.8545
22.6576
21.8271
21.7471
22.6489
24.4316
26.6161
28.4798
29.2956
28.6388
26.572
23.6733
20.8047
18.8147
18.2052
18.9704
20.6294
22.4808
23.9386
24.7901
25.2113
25.63
26.4804
27.9011
29.6404
31.1635
31.9528
31.7499
30.6919
29.2545
27.9928
27.2271
26.897
26.6071
25.8551
24.3555
22.2313
20.0284
18.5072
18.3371
19.8012
22.646
26.156
29.3449
31.2862
31.3669
29.4696
25.9688
21.6054
17.23
13.5254
10.7701
8.78024
7.0451
4.97838
2.27064
-0.886579
-3.78166
-5.43138
-4.94599
-1.92422
3.34388
9.93445
16.6034
22.1631
25.8034
27.2699
26.8032
24.9957
22.5367
20.0356
17.9659
16.6549
16.3081
16.9608
18.4332
20.223
21.4703
20.9946
17.4235
9.61193
-2.90806
-19.4872
-38.0841
-55.3112
-66.9484
-68.9442
-58.5993
-35.6702
-2.87322
34.4256
69.3625
95.3509
107.844
105.538
90.6015
67.8356
43.1318
21.6903
6.74681
-1.03842
-3.19553
-2.43066
-1.44403
-1.96685
-4.41219
-8.07574
-11.7435
-14.3141
-15.2716
-14.821
-13.5812
-12.2916
-11.5099
-11.475
-12.0914
-13.0896
-14.2418
-15.4329
-16.7052
-18.2004
-20.0597
-22.3596
-25.0526
-27.9715
-30.8692
-33.4837
-35.5893
-37.0926
-38.035
-38.6106
-39.1728
-40.1668
-42.0434
-45.1313
-49.499
-54.9119
-60.8713
-66.7454
-71.9434
-76.1011
-79.1928
-81.503
-83.5047
-85.6455
-88.1574
-90.9627
-93.6893
-95.8201
-96.8522
-96.412
-94.335
-90.5899
-85.2167
-78.2659
-69.8433
-60.1747
-49.7306
-39.1626
-29.2267
-20.5059
-13.2069
-7.06547
-1.45195
4.35461
10.8175
17.9344
25.1923
31.7407
36.7203
39.6242
40.4846
39.8542
38.5813
37.5066
37.1872
37.6736
38.5784
39.3009
39.2662
38.1631
36.0832
33.4265
30.7497
28.5243
26.993
26.1115
25.6381
25.2905
24.8858
24.4085
23.9997
23.8167
23.9176
24.1743
24.3619
24.238
23.7085
22.8889
22.0854
21.6447
21.7777
22.4439
23.379
24.2288
24.6965
24.7135
24.4313
24.1903
24.316
24.9662
26.032
27.2144
28.0755
28.2348
27.5081
25.95
23.8766
21.7571
20.0954
19.304
19.6255
21.047
23.3166
26.0049
28.5634
30.5023
31.4907
31.4466
30.5534
29.1761
27.6985
26.3606
25.1843
23.9808
22.4926
20.5596
18.2799
16.0592
14.491
14.0956
15.1426
17.4823
20.6197
23.8035
26.3094
27.6089
27.4509
25.8319
22.9141
18.9347
14.2115
9.14204
4.19046
-0.11092
-3.28034
-5.04667
-5.42064
-4.67777
-3.28751
-1.73905
-0.372217
0.694689
1.5432
2.38313
3.42414
4.8447
6.72342
9.01015
11.5951
14.2701
16.7077
18.5675
19.6202
19.8531
19.5065
19.0523
19.0534
19.9021
21.5775
23.5823
24.9687
24.5728
21.2678
14.2136
3.11655
-11.5977
-28.6975
-46.0919
-60.948
-70.0527
-70.4323
-60.1495
-39.1223
-9.52834
24.3439
56.901
82.6155
97.369
99.4928
90.1035
72.5751
51.3897
30.8663
14.121
2.50433
-4.26789
-7.53772
-8.97068
-9.95553
-11.2878
-13.1639
-15.3573
-17.4759
-19.1347
-20.0693
-20.1721
-19.5175
-18.364
-17.097
-16.1886
-16.0342
-16.8287
-18.4243
-20.4269
-22.3346
-23.7548
-24.6158
-25.2149
-26.0955
-27.821
-30.6556
-34.4485
-38.7294
-42.8727
-46.4208
-49.2412
-51.5711
-53.8668
-56.5307
-59.7235
-63.2745
-66.8083
-69.9598
-72.6288
-75.0101
-77.5809
-80.9148
-85.3961
-91.0545
-97.5166
-104.133
-110.128
-114.739
-117.31
-117.41
-114.803
-109.472
-101.673
-91.9068
-80.8457
-69.2372
-57.7053
-46.6687
-36.3411
-26.708
-17.7304
-9.39223
-1.76149
5.07032
11.1053
16.5051
21.5832
26.7166
32.1441
37.8305
43.4244
48.341
51.9855
53.9557
54.142
52.7472
50.1947
46.9341
43.4212
40.0661
37.2114
35.1864
34.2308
34.373
35.4172
36.8854
38.1702
38.7658
38.4811
37.5537
36.5796
36.2144
36.8271
38.312
40.0663
41.247
41.1623
39.6488
37.2322
34.8709
33.5446
33.7712
35.4074
37.7375
39.8176
40.9408
40.9264
40.1726
39.3449
39.0155
39.3191
39.8885
40.1028
39.4065
37.644
35.2625
33.1479
32.2801
33.3093
36.2651
40.4595
44.6884
47.6299
48.2602
46.223
41.9121
36.2989
30.6561
26.2416
23.9619
24.2164
26.8745
31.3103
36.5749
41.5611
45.1976
46.7019
45.7141
42.4565
37.6508
32.2801
27.3374
23.6135
21.4889
20.9798
21.8832
23.9336
26.8489
30.3601
34.1292
37.7311
40.6135
42.2582
42.3358
40.8152
37.9123
34.0037
29.4583
24.5108
19.278
13.8388
8.42627
3.49014
-0.401176
-2.6708
-2.98264
-1.42817
1.45794
4.81792
7.70947
9.43491
9.7715
9.02505
7.87531
7.0838
7.15884
8.13345
9.54143
10.7343
11.2286
10.9976
10.499
10.4689
11.5913
14.1931
18.1215
22.7959
27.4436
31.2393
33.3123
32.8497
29.0015
21.0951
8.8602
-7.20066
-25.5544
-43.6694
-58.3337
-66.1884
-64.5244
-52.0635
-29.4256
0.744655
34.1009
65.3851
89.6157
103.204
104.777
95.5561
78.9498
59.427
41.2675
27.3197
18.4701
13.7169
10.9296
7.85612
2.96203
-4.14018
-12.7151
-21.3057
-28.1484
-31.7893
-31.3885
-26.9831
-19.5935
-11.0335
-3.48269
1.12634
1.7686
-1.44383
-7.33919
-14.1753
-20.3442
-24.9506
-28.0893
-30.5203
-33.0851
-36.2178
-39.6303
-42.4593
-43.7759
-43.0569
-40.5669
-37.2963
-34.6513
-34.0262
-36.2975
-41.6201
-49.3809
-58.3551
-66.9931
-73.7683
-77.6452
-78.4345
-76.8258
-74.2885
-72.5295
-72.9011
-75.8288
-80.6974
-86.0089
-89.8739
-90.7243
-87.8549
-81.5637
-73.0894
-64.0722
-55.9608
-49.6632
-45.3272
-42.3756
-39.8559
-36.7747
-32.3003
-26.0048
-17.9135
-8.50841
1.45517
10.9873
19.0942
24.9831
28.2041
28.7508
26.9666
23.5294
19.3685
15.3956
12.3143
10.5375
10.0201
10.3236
10.9118
11.3726
11.5125
11.3726
11.2284
11.3217
11.7409
12.4738
13.321
13.9594
13.9826
12.8752
10.2329
5.98761
0.507296
-5.3869
-10.4725
-13.4675
-13.4071
-9.9623
-3.58596
4.55744
12.914
19.8863
24.2939
25.6388
24.0538
20.1677
14.9529
9.4052
4.53236
1.21689
0.130402
1.48842
4.87314
9.25903
13.1801
15.1833
14.4387
11.0255
5.84937
0.337153
-4.09595
-6.44437
-6.34018
-3.90304
0.437521
6.19369
12.7413
19.2708
24.5617
27.137
25.6688
19.5371
9.2634
-3.36653
-15.6941
-25.0913
-29.8224
-29.549
-25.2802
-18.848
-12.1487
-6.41476
-2.1047
0.910191
2.95504
4.23851
4.82614
4.77268
4.36042
4.09775
4.67318
6.61993
9.97201
14.2129
18.4421
21.6774
23.095
22.2561
19.178
14.1108
7.35879
-0.870224
-10.4176
-21.0163
-32.1135
-42.6548
-51.0437
-55.4114
-54.0797
-46.158
-32.0709
-13.6114
6.36905
24.5696
38.084
45.1901
45.7041
40.8342
32.5607
23.0446
13.9883
6.34791
0.34666
-4.28912
-7.96002
-10.9785
-13.5063
-15.5771
-17.1018
-17.9172
-17.8188
-16.4905
-13.6617
-9.30119
-3.87212
1.45899
5.00899
5.07834
0.567367
-8.45219
-20.4957
-32.9051
-42.6765
-47.4461
-46.2541
-39.8795
-30.6364
-21.5819
-15.5502
-14.198
-17.5361
-24.0041
-31.1071
-36.3302
-38.0108
-35.9594
-31.525
-26.9942
-24.7751
-26.5549
-32.8148
-42.7322
-54.541
-66.2139
-76.0186
-82.8062
-86.0809
-85.9796
-83.1058
-78.4339
-73.1682
-68.5372
-65.4684
-64.2245
-64.1858
-63.996
-62.1543
-57.7529
-50.957
-42.9774
-35.5725
-30.1317
-26.976
-25.2402
-23.3064
-19.6223
-13.552
-5.59699
2.93142
10.5245
16.1123
19.4059
20.8315
21.1345
20.9672
20.7575
20.6777
20.7318
20.842
20.889
20.6754
19.9404
18.4264
15.9967
12.762
8.99318
5.10013
1.50255
-1.43312
-3.44867
-4.35298
-4.04352
-2.48235
0.18329
3.47364
6.64526
8.79651
9.13035
7.30295
3.61356
-1.03691
-5.43368
-8.39284
-9.15489
-7.63053
-4.31298
0.0318043
4.58138
8.71227
12.1383
14.7754
16.5985
17.5114
17.3167
15.8221
12.9329
8.77998
3.83946
-1.20228
-5.64609
-8.96147
-10.865
-11.3307
-10.4634
-8.33527
-5.05716
-0.842379
3.87743
8.38074
11.6758
12.7395
10.8438
5.8358
-1.67074
-10.3927
-18.6269
-24.6938
-27.4182
-26.494
-22.5502
-16.87
-10.9816
-6.13097
-2.91739
-1.24351
-0.524386
-0.124454
0.359213
0.937583
1.30996
1.12714
0.242516
-1.14644
-2.52139
-3.23579
-2.74156
-0.867246
2.10869
5.4292
8.03426
8.64448
6.02655
-0.628802
-11.4276
-25.4949
-40.8457
-54.5478
-63.2726
-64.0948
-55.3718
-37.4255
-12.7038
14.6358
39.7724
58.4029
67.7782
67.2706
58.2991
43.6587
26.6164
10.0597
-3.93232
-14.2653
-20.6872
-23.4974
-23.2946
-20.841
-17.082
-13.0143
-9.60921
-7.56592
-7.231
-8.58511
-11.2271
-14.591
-18.0837
-21.1761
-23.4915
-24.777
-24.9936
-24.3471
-23.2694
-22.3515
-22.1456
-22.9406
-24.634
-26.829
-28.987
-30.7517
-32.1719
-33.6911
-35.9172
-39.2727
-43.7505
-48.8733
-53.901
-58.1198
-61.2339
-63.4202
-65.2131
-67.29
-70.1273
-73.8198
-78.1248
-82.5741
-86.797
-90.6165
-94.072
-97.2908
-100.313
-102.988
-104.946
-105.703
-104.864
-102.257
-97.969
-92.1751
-85.0074
-76.4255
-66.2317
-54.1844
-40.3203
-25.1596
-9.83614
4.12121
15.2305
22.5401
25.9992
26.463
25.4206
24.3615
24.0789
24.4583
24.7101
23.8608
21.4414
17.8269
14.2342
12.1601
12.7025
15.9297
20.845
25.7995
29.1674
30.0225
28.5123
25.6837
23.0006
21.6818
22.229
24.3219
27.083
29.4843
30.7159
30.3917
28.5372
25.5041
21.8177
17.9756
14.4287
11.5805
9.78006
9.22386
9.99023
12.0339
15.1441
18.9332
22.8236
26.1599
28.3365
28.9848
28.1125
26.1663
23.9411
22.3336
22.0377
23.2633
25.6241
28.2387
30.0785
30.3652
28.8875
26.1572
23.2087
21.1216
20.5967
21.6439
23.6311
25.5678
26.4658
25.7705
23.4676
19.9599
15.771
11.3459
6.93472
2.78437
-0.763408
-3.14024
-3.66658
-1.81587
2.43474
8.45925
15.0837
20.9647
25.1131
27.1971
27.5725
27.008
26.2149
25.534
24.789
23.579
21.6747
19.2643
17.0396
15.8922
16.3741
18.2804
20.5004
21.2152
18.4381
10.6839
-2.39057
-19.5445
-37.89
-53.2929
-61.201
-57.928
-41.8818
-14.4147
20.1444
55.4202
84.7527
103.101
108.364
101.719
86.8297
68.3414
50.2939
35.0891
23.3932
14.5893
7.65054
1.84823
-3.03816
-6.81277
-9.26813
-10.4325
-10.6292
-10.2909
-9.77392
-9.28821
-8.935
-8.80907
-9.04945
-9.82646
-11.2195
-13.1489
-15.3555
-17.4395
-18.9324
-19.4451
-18.7738
-17.011
-14.6622
-12.6821
-12.3154
-14.7525
-20.5759
-29.4028
-39.8592
-49.8835
-57.4333
-61.215
-61.1179
-58.2356
-54.4397
-51.6583
-51.2913
-53.8434
-58.9134
-65.6073
-72.9828
-80.3448
-87.3318
-93.7433
-99.2499
-103.198
-104.732
-103.133
-98.2345
-90.728
-82.118
-74.2295
-68.5136
-65.4502
-64.2488
-63.2164
-60.3884
-54.3131
-44.641
-32.2511
-18.8622
-6.27854
4.29035
12.617
19.4051
25.8257
32.8777
40.8412
49.105
56.3802
61.1608
62.4482
60.2798
55.701
50.4516
46.4104
44.8988
46.2444
49.7771
54.284
58.5211
61.5918
63.0657
62.8282
60.9077
57.3709
52.3878
46.4771
40.5564
35.7571
33.0242
32.7432
34.4811
37.0914
39.2205
39.9067
38.9569
36.9514
34.9663
34.0609
34.8593
37.423
41.3764
46.1428
51.0565
55.4797
58.7713
60.2457
59.272
55.5441
49.4239
41.9711
34.6701
29.145
26.623
27.5656
31.5029
37.2086
43.1388
47.9288
50.7979
51.6974
51.1841
49.9583
48.4183
46.4805
43.6131
39.1606
32.7636
24.7726
16.221
8.54129
3.13456
0.921644
1.97923
5.62603
10.6568
15.8102
20.1583
23.279
25.2268
26.3997
27.266
28.1241
29.1211
30.2394
31.2928
31.9411
31.7721
30.4561
27.9501
24.5921
21.0527
18.1337
16.3482
15.5099
14.5229
11.5949
4.86326
-6.64393
-22.2671
-39.4183
-53.9089
-60.9908
-56.9692
-40.6901
-14.1956
17.5351
47.9451
70.7407
81.7504
79.9759
67.6804
49.3524
30.054
13.8933
3.08047
-2.25654
-3.52834
-2.59854
-0.990991
0.479425
1.62348
2.531
3.19165
3.3462
2.5987
0.635999
-2.53282
-6.52352
-10.6306
-14.1245
-16.4375
-17.2312
-16.4175
-14.2796
-11.4242
-8.71419
-7.06815
-7.24442
-9.64452
-13.9825
-19.4112
-24.7561
-28.9195
-31.2853
-31.9327
-31.4459
-30.703
-30.4659
-31.095
-32.5646
-34.6963
-37.419
-40.9569
-45.6396
-51.6077
-58.5622
-65.5074
-70.932
-73.3746
-72.0244
-67.1689
-60.2667
-53.5128
-49.0143
-48.0502
-50.6374
-55.5635
-60.8226
-64.4219
-65.0027
-62.1012
-56.1346
-47.9769
-38.5149
-28.4309
-18.1494
-8.05389
1.347
9.42562
15.7052
20.143
23.1815
25.5881
28.08
30.9767
33.8516
35.7288
35.6184
33.0696
28.4897
23.1972
18.962
17.3649
19.1762
24.0459
30.6051
36.8962
41.0318
41.7979
38.9951
33.4361
26.5605
19.9414
14.8178
11.652
10.0796
9.28385
8.3297
6.64597
4.19361
1.59151
-0.196973
-0.344154
1.56489
5.57691
11.3809
18.3855
25.8708
32.8869
38.1863
40.3746
38.3297
31.6322
21.064
8.69495
-2.69049
-10.4733
-13.0856
-10.5574
-4.36789
3.15691
9.78685
14.0818
15.6367
14.8523
12.4377
9.11547
5.59757
2.51628
0.42193
-0.235169
0.710908
2.91015
5.35269
6.70114
5.94055
2.79304
-2.16329
-7.61493
-11.9587
-13.9491
-13.0547
-9.47608
-4.08242
1.99716
7.69765
12.149
14.8509
15.7283
15.014
13.0944
10.2916
6.63077
1.74718
-4.86233
-13.358
-23.2653
-33.1677
-40.9532
-44.519
-42.46
-34.6225
-22.4333
-8.59795
3.67238
11.5148
13.2892
9.19102
1.0249
-8.34519
-15.9219
-19.6043
-18.8003
-14.3687
-8.32125
-3.02793
-0.463107
-1.64007
-6.47208
-14.0157
-22.7164
-30.6973
-36.233
-38.0749
-35.7016
-29.4809
-20.8523
-12.1708
-6.0755
-4.6421
-8.66815
-17.216
-27.7834
-37.168
-42.6172
-42.7657
-38.2548
-31.5647
-25.8719
-23.9764
-27.1283
-34.4958
-43.3934
-50.2849
-52.2446
-48.3029
-39.9853
-30.7863
-24.9033
-25.5396
-33.659
-47.6081
-63.9148
-78.652
-88.703
-92.7299
-91.3555
-86.6548
-81.1772
-77.0764
-75.5487
-76.5671
-78.9698
-80.8639
-80.4344
-76.5669
-69.268
-59.8839
-50.834
-44.558
-42.647
-45.1169
-50.2546
-55.1816
-56.8313
-53.2552
-44.2541
-31.4666
-17.7332
-6.10773
1.1796
3.29941
0.803612
-4.62443
-10.7127
-15.2871
-16.875
-14.9563
-9.9899
-3.14761
4.0218
9.9804
13.5881
14.2786
11.9505
6.96479
0.25712
-6.81131
-12.8219
-16.682
-17.9155
-16.9906
-15.19
-14.0362
-14.6705
-17.2749
-21.0082
-24.1679
-24.9702
-22.1565
-15.5357
-6.23873
3.58184
11.2819
14.5143
11.9441
3.73976
-8.38311
-21.5173
-32.3977
-38.4786
-38.7859
-34.2107
-27.0633
-20.1357
-15.4483
-13.3206
-12.4019
-10.4903
-5.9437
1.24838
9.07336
14.2444
13.6688
5.9073
-8.11812
-25.339
-41.6786
-53.5637
-59.0152
-57.8259
-51.2416
-41.1623
-29.3942
-17.4178
-6.52922
1.99872
6.96544
7.49246
3.50628
-3.92824
-12.8305
-20.874
-26.1504
-27.7883
-26.163
-22.5287
-18.3133
-14.4885
-11.3297
-8.62719
-6.2368
-4.71592
-5.38147
-9.95111
-19.7047
-34.4704
-52.0398
-68.3678
-78.6912
-79.0831
-67.9178
-46.8213
-20.2815
5.67531
25.3545
35.1379
34.4741
25.753
13.083
0.727128
-8.27844
-12.8558
-13.7286
-12.6048
-11.2225
-10.6651
-11.2041
-12.492
-13.9748
-15.26
-16.1407
-16.5304
-16.3619
-15.574
-14.2232
-12.5859
-11.1935
-10.6459
-11.2699
-12.9079
-14.9497
-16.564
-17.1534
-16.7366
-16.0381
-16.1693
-18.1229
-22.17
-27.6226
-33.1247
-37.2303
-39.0611
-38.7545
-37.2666
-35.9245
-35.7376
-36.9666
-39.2384
-41.9738
-44.8992
-48.3569
-53.0877
-59.7332
-68.2638
-77.7195
-86.4075
-92.4539
-94.5545
-92.4334
-86.8764
-79.3759
-71.5941
-64.7817
-59.4469
-55.4939
-52.4344
-49.7536
-47.1855
-44.7083
-42.3365
-39.986
-37.2832
-33.5535
-28.0479
-20.2248
-10.0998
1.66761
13.827
24.7365
32.8664
37.3234
38.1334
36.264
33.3078
30.8489
29.9108
30.6315
32.3424
33.9843
34.5663
33.5937
31.1008
27.4942
23.2813
18.8854
14.5586
10.5266
7.03495
4.41972
3.06484
3.30677
5.24453
8.69663
13.2485
18.2945
23.0777
26.8422
28.9334
28.9353
26.7579
22.7611
17.7479
12.7963
8.90761
6.71144
6.23333
6.98908
8.22198
9.28385
9.90615
10.2498
10.8009
11.9991
14.001
16.6251
19.4395
21.8288
23.264
23.3455
21.9064
19.0722
15.2342
11.0295
7.16571
4.22073
2.44583
1.67667
1.39507
0.926938
-0.233512
-2.18661
-4.58571
-6.75007
-7.90721
-7.5164
-5.50673
-2.28662
1.4015
4.68743
6.869
7.55866
6.75493
4.82456
2.31507
-0.177482
-2.0754
-2.9763
-2.80434
-1.67564
0.072805
2.05017
4.00557
5.96018
8.24624
11.3111
15.4324
20.3995
25.2519
28.2934
27.3631
20.4693
6.59049
-13.6552
-37.6829
-61.1479
-78.8068
-85.8565
-79.3943
-59.4507
-29.2717
5.39018
37.7771
61.9627
74.357
74.4917
64.7118
49.1722
32.4241
18.1672
8.5181
3.87245
3.31917
5.18369
7.62423
9.0796
8.50568
5.45777
0.119839
-6.7519
-14.0002
-20.4045
-25.0032
-27.3623
-27.7658
-27.0112
-25.9607
-25.1622
-24.6171
-23.8511
-22.2854
-19.6601
-16.332
-13.2554
-11.6265
-12.3942
-15.8308
-21.4345
-28.0637
-34.4028
-39.4498
-42.8857
-45.0752
-46.8221
-48.9599
-51.9743
-55.8362
-60.1724
-64.6017
-68.9432
-73.2903
-77.8227
-82.4497
-86.6497
-89.5472
-90.294
-88.4915
-84.5001
-79.4405
-74.8089
-71.9348
-71.5479
-73.5521
-77.0863
-80.9006
-83.7449
-84.6189
-82.8644
-78.1088
-70.1649
-59.0262
-44.9755
-28.7367
-11.4889
5.1706
19.592
30.4248
37.0072
39.5252
38.9069
36.5623
33.901
31.9415
31.0944
31.1614
31.5379
31.598
31
29.8861
28.8685
28.7346
30.0152
32.7009
36.1171
39.1937
40.8167
40.2914
37.6446
33.5568
29.1185
25.4331
23.3101
23.0338
24.3938
26.7722
29.3995
31.5992
32.9076
33.1843
32.5725
31.3722
29.893
28.2818
26.5391
24.608
22.6191
21.0436
20.6832
22.4623
27.0157
34.2668
43.1207
51.5636
57.242
58.2535
53.9124
45.1747
34.4313
24.6409
18.2783
16.518
18.9202
23.767
28.85
32.3456
33.3331
31.9734
29.1322
25.878
23.0839
21.1398
20.0616
19.6932
19.8107
20.2291
20.828
21.5465
22.3045
23.0174
23.6321
24.1416
24.555
24.8677
25.1165
25.4179
25.99
27.0898
28.9936
31.8519
35.5479
39.6404
43.4196
45.9414
46.1867
43.2088
36.3286
25.2909
10.5654
-6.57939
-24.1243
-39.531
-50.1855
-53.7364
-48.5632
-34.2836
-12.1135
15.1556
43.4566
68.0807
84.7251
90.6303
85.4822
71.559
53.1182
35.092
21.5562
14.502
13.4292
16.0023
19.2629
20.8418
19.7485
16.4703
12.2526
8.32788
5.32081
3.17299
1.49845
0.0848809
-0.938402
-1.19487
-0.380867
1.55467
4.2971
7.2298
9.64732
10.9379
10.7889
9.22243
6.49968
3.1279
-0.205708
-2.77126
-4.01988
-3.79801
-2.29301
0.0379469
2.47162
4.17266
4.38584
2.40349
-2.38366
-10.3236
-21.316
-34.6076
-48.6986
-61.4727
-70.6909
-74.7214
-73.1684
-67.129
-58.9421
-51.343
-46.3856
-44.8379
-46.0502
-48.2813
-49.5598
-48.3902
-44.0397
-36.6378
-26.9475
-16.136
-5.54341
3.46382
9.72329
12.7232
12.7983
11.0769
9.30802
9.40513
12.8013
20.0457
30.5962
43.0362
55.5895
66.5519
74.7219
79.5716
81.1318
79.784
76.0802
70.5877
64.0134
57.3095
51.6254
48.1784
47.8585
50.7846
56.1865
62.5961
68.3303
72.0146
73.1547
72.2741
70.523
69.1086
68.7318
69.2749
69.8716
69.4774
67.4295
63.8937
59.7931
56.4476
55.0691
56.2858
59.9837
65.467
71.7447
77.8244
82.8606
86.2251
87.4721
86.3891
83.1107
78.1819
72.5772
67.4812
63.9168
62.4748
63.0531
64.9143
66.8727
67.7891
66.943
64.1651
59.8305
54.6157
49.2441
44.2491
39.9212
36.3974
33.7902
32.2523
31.9654
33.0007
35.1707
38.0151
40.8886
43.2068
44.6563
45.2576
45.2669
44.9838
44.5975
44.1523
43.5512
42.8188
42.1675
41.9457
42.5325
44.0165
46.0411
47.7262
47.8821
45.1156
38.0781
25.8913
8.59086
-12.5064
-34.7045
-54.0963
-66.2361
-67.251
-55.0566
-30.2687
3.56778
40.6549
74.2667
98.5046
109.819
107.769
94.8428
75.4738
54.5583
36.0275
21.89
12.1019
5.22618
-0.601535
-6.69343
-13.281
-19.4796
-23.8163
-25.1149
-23.0523
-18.4708
-13.1619
-9.18852
-8.06721
-10.2884
-15.2414
-21.5072
-27.3915
-31.5769
-33.5173
-33.3943
-31.8006
-29.4917
-27.1773
-25.3443
-24.3826
-24.7513
-26.9329
-31.3074
-37.97
-46.5487
-56.1698
-65.5134
-73.1975
-78.1886
-80.0591
-79.1639
-76.4891
-73.3764
-71.2611
-71.2618
-73.9431
-79.2816
-86.6735
-95.0075
-103.008
-109.564
-113.962
-115.991
-116.013
-114.683
-112.592
-109.97
-106.651
-102.116
-95.7358
-87.1343
-76.365
-63.9733
-50.8835
-38.1545
-26.7729
-17.4329
-10.555
-6.29716
-4.52152
-4.7421
-6.09961
-7.46218
-7.65488
-5.84114
-1.86053
3.6402
9.46414
14.4032
17.7716
19.627
20.6481
21.6955
23.1749
24.7262
25.372
24.0338
20.1532
14.118
7.20283
1.10166
-2.75087
-3.63364
-1.85472
1.52236
5.15108
7.91989
9.28369
9.323
8.62592
7.97343
8.04421
9.17418
11.277
13.8412
16.0971
17.1982
16.5115
13.9233
9.94771
5.69996
2.56024
1.75092
3.91596
8.79852
15.3065
21.8046
26.6839
28.9249
28.4026
25.8688
22.6243
19.973
18.7385
18.9342
19.8641
20.4051
19.5253
16.6835
12.0498
6.4714
1.1171
-2.84768
-4.68108
-4.25117
-2.00735
1.26634
4.76152
7.96583
10.8036
13.5692
16.7157
20.522
24.8257
29.0008
32.1605
33.582
33.0792
31.1139
28.6818
26.8216
26.0548
25.9663
25.2443
22.1853
15.3085
3.98075
-11.2296
-28.529
-45.3236
-58.6644
-65.7462
-64.3801
-53.4231
-33.1692
-5.61897
25.6563
55.997
80.5476
95.3877
98.498
90.2979
73.443
52.024
30.4202
12.2997
-0.179805
-6.48837
-7.45934
-4.7392
-0.166977
4.64084
8.53181
10.843
11.3243
10.0869
7.34486
3.23868
-2.15379
-8.72245
-16.251
-24.1634
-31.399
-36.589
-38.4734
-36.4069
-30.7964
-23.1451
-15.7006
-10.7818
-9.94631
-13.4989
-20.4494
-28.942
-37.0021
-43.1372
-46.6639
-47.9092
-47.8304
-47.5593
-48.0617
-49.9199
-53.2665
-57.7337
-62.6611
-67.3355
-71.1908
-74.0046
-76.0197
-77.8216
-80.11
-83.3849
-87.6946
-92.5585
-97.0478
-100.055
-100.688
-98.4711
-93.4375
-86.0225
-76.9996
-67.333
-57.9816
-49.6941
-42.8266
-37.201
-31.996
-25.9438
-17.9157
-7.42216
5.09066
18.1537
29.794
38.2615
42.7715
43.7048
42.4604
40.8114
40.0661
40.602
41.8253
42.6961
42.3874
40.8227
38.8144
37.7199
38.7779
42.283
47.4329
52.5906
55.9476
56.227
53.2267
47.9353
42.0861
37.391
34.8794
34.5729
35.6281
36.7886
37.0478
36.1755
34.8488
34.3677
35.9998
40.4354
47.2632
55.1255
62.175
66.6197
67.3624
64.4118
58.8308
52.316
46.6191
43.0559
42.1621
43.7048
46.7253
50.0044
52.455
53.3708
52.6842
50.9625
49.1923
48.4424
49.3871
51.8732
54.8808
56.8311
56.1606
52.0832
45.1306
37.1567
30.8273
28.6176
31.8685
40.1244
51.1895
61.7532
68.5033
69.1798
63.4032
52.7887
40.4885
30.0398
24.3505
24.8354
31.0778
41.0559
51.9118
60.8909
66.0162
66.4157
62.2286
54.0407
42.3917
27.6136
10.0321
-9.42642
-28.6735
-44.3498
-52.3463
-49.0339
-32.7572
-4.80424
30.416
66.138
95.1303
111.678
113.257
101.206
80.0828
56.1475
35.3197
21.3992
15.0575
14.2504
15.437
15.2913
12.1038
6.2659
-0.201022
-4.76844
-5.7876
-3.17545
1.52192
5.95903
8.07488
6.97283
3.21901
-1.50232
-5.31372
-7.01084
-6.58752
-5.11391
-4.1762
-5.19289
-8.97695
-15.3993
-23.5881
-32.249
-40.1108
-46.0297
-49.0422
-48.628
-44.8371
-38.3809
-30.6149
-23.4824
-19.0678
-19.0833
-24.3061
-34.2652
-47.1466
-60.2488
-70.6987
-76.3605
-76.5261
-72.2375
-65.8869
-60.2285
-57.4747
-58.5504
-62.8509
-68.6677
-73.9277
-76.9416
-76.7875
-73.4169
-67.3902
-59.4847
-50.4743
-41.0555
-31.7265
-22.8344
-14.6723
-7.39215
-1.04698
4.3507
8.75216
12.025
13.9347
14.2178
12.7148
9.52069
4.96267
-0.324853
-5.50544
-9.56997
-11.4173
-9.96037
-4.33793
5.63054
19.0468
33.7594
46.6126
54.2416
54.1315
45.6486
30.3644
11.7118
-5.95524
-18.7878
-24.5326
-23.0357
-16.0649
-6.58271
2.3186
8.38421
10.7478
10.1449
8.4112
7.60459
9.16406
13.4221
19.4711
25.5367
29.8728
31.4254
30.2666
27.3923
24.1823
21.6825
20.1403
18.8409
16.5337
12.1417
5.4139
-2.80159
-10.7445
-16.5599
-18.988
-17.8564
-14.1996
-9.79328
-6.42367
-5.05937
-5.53165
-6.69398
-6.87511
-4.676
0.371063
7.49916
14.7891
19.9038
21.0177
17.5732
10.5692
2.28707
-4.58027
-7.93537
-7.10307
-2.91359
2.71238
7.58112
10.0489
9.56536
6.66878
2.53203
-1.76992
-5.74981
-9.72479
-14.4703
-20.6125
-28.1198
-35.9064
-42.0439
-44.3135
-41.2081
-32.5675
-19.6353
-4.75072
9.30824
20.151
26.338
27.5758
24.498
18.3083
10.511
2.69994
-3.65537
-7.41061
-7.88329
-5.1796
-0.357836
4.86494
8.54438
9.16701
6.12613
-0.0998317
-8.28107
-16.8442
-24.3836
-29.9211
-32.8186
-32.6351
-29.1608
-22.6591
-14.1045
-5.28692
1.47457
4.08684
1.40472
-6.18865
-16.8278
-27.7017
-36.0952
-40.3855
-40.577
-38.1122
-35.2068
-33.9526
-35.4257
-39.3
-44.201
-48.3999
-50.5654
-50.5023
-49.2261
-48.4907
-49.9927
-54.5956
-61.8504
-70.1487
-77.3154
-81.498
-81.9093
-79.1785
-75.0537
-71.6083
-70.3484
-71.5933
-74.3894
-76.906
-77.1462
-73.7453
-66.3736
-55.786
-43.4945
-31.2274
-20.3763
-11.663
-5.03153
0.200718
4.95428
9.99698
15.591
21.4398
26.773
30.6212
32.2229
31.3242
28.3152
24.0896
19.7872
16.4712
14.8133
14.8882
16.2458
18.0624
19.4744
19.9313
19.3955
18.2976
17.2724
16.8052
16.8755
16.8655
15.8952
13.293
9.04147
4.00516
-0.294273
-2.31441
-1.15513
2.99625
8.87248
14.602
18.5595
19.9671
19.1029
17.0627
15.1106
14.055
13.9064
13.9895
13.4825
12.0228
9.93871
8.2364
8.01342
9.84827
13.4192
17.5271
20.6191
21.4056
19.3441
14.8474
9.04831
3.36074
-1.0155
-3.40964
-3.70143
-2.15296
0.733629
4.41131
8.37967
12.1302
15.1636
17.1385
17.954
17.8912
17.5934
17.817
19.1844
21.9046
25.6236
29.5647
32.7572
34.2616
33.3776
29.6956
23.0605
13.4562
1.07512
-13.5552
-29.4499
-45.0616
-58.1901
-66.2209
-66.6768
-57.8427
-39.5112
-13.4044
16.8772
46.4938
70.5437
85.2802
89.0422
82.5397
68.4797
50.5682
32.4609
16.9107
5.32248
-2.14344
-6.15355
-7.8172
-8.33283
-8.80168
-10.0735
-12.6463
-16.4418
-20.7448
-24.3795
-26.054
-24.9706
-21.2519
-15.9619
-10.7464
-7.1556
-6.002
-7.02844
-9.24667
-11.563
-13.5069
-15.5615
-18.9175
-24.7697
-33.4358
-43.8645
-53.8042
-60.618
-62.3635
-58.7005
-51.2169
-42.8638
-36.8224
-35.3737
-39.1651
-47.1132
-57.0143
-66.5688
-74.1822
-79.3556
-82.5791
-84.8155
-86.944
-89.3553
-91.9153
-94.1585
-95.5639
-95.7378
-94.515
-91.9482
-88.1446
-83.2144
-77.2911
-70.5463
-63.1632
-55.2966
-47.1531
-38.8704
-30.5138
-22.2303
-14.2736
-6.97698
-0.629897
4.69242
9.27607
13.7424
18.8402
25.0236
32.0711
38.9844
44.2913
46.552
44.9838
39.9054
32.7058
25.347
19.7231
16.9681
17.1088
19.1443
21.5888
23.1484
23.186
21.9178
20.2741
19.435
20.2846
23.0115
27.0903
31.5106
34.9993
36.4607
35.3829
32.0084
27.239
22.4309
19.0001
17.9371
19.4355
22.8288
26.8405
30.1257
31.8149
31.7925
30.7691
29.8405
29.9051
31.2521
33.3967
35.3764
36.2597
35.6778
33.979
31.9737
30.5329
30.0628
30.2484
30.2164
29.0097
26.0911
21.6797
16.6175
12.0231
8.95167
8.0514
9.33914
12.3268
16.2827
20.3983
23.917
26.2499
27.0815
26.4469
24.7304
22.5532
20.7142
19.9431
20.663
22.9135
26.3826
30.5537
34.8678
38.7775
41.8272
43.5164
43.3091
40.5463
34.5472
24.8364
11.4358
-4.82881
-22.1185
-37.6268
-47.9486
-49.7578
-40.7978
-20.8701
7.74035
40.466
71.3992
94.8205
106.704
105.836
93.9095
74.8139
53.2949
33.5447
18.2289
8.10157
2.42727
-0.20387
-1.02537
-0.632656
1.00702
4.19056
8.86172
14.2083
18.6167
20.1524
17.3334
9.7963
-1.37251
-13.8056
-24.6252
-31.4379
-33.189
-30.539
-25.5519
-20.8307
-18.5369
-19.5874
-23.3413
-28.0494
-31.6773
-32.8312
-31.3077
-28.1098
-24.953
-23.4759
-24.6076
-28.3401
-33.8893
-40.2069
-46.4291
-52.1807
-57.4942
-62.5519
-67.4224
-71.9498
-75.7888
-78.5905
-80.2508
-80.9641
-81.1037
-81.0926
-81.2566
-81.7608
-82.5073
-83.1438
-83.1278
-81.8047
-78.4736
-72.6124
-64.1402
-53.5823
-41.964
-30.505
-20.19
-11.4003
-3.74898
3.62228
11.5424
20.2469
29.1325
36.9855
42.4524
44.7718
44.1751
41.8492
39.4684
38.5381
39.8232
43.0235
47.006
50.244
51.4006
49.7354
45.255
38.7488
31.4846
24.8748
20.1341
18.0353
18.7925
22.0541
27.0392
32.8147
38.5449
43.5847
47.4567
49.8101
50.2802
48.6087
44.7426
39.0888
32.6469
26.898
23.4383
23.441
27.2378
34.1291
42.5479
50.5342
56.3097
58.7178
57.4387
52.9382
46.166
38.2617
30.3622
23.4634
18.3612
15.5803
15.3414
17.5496
21.7344
27.1092
32.7519
37.8082
41.6647
44.0262
44.9453
44.6746
43.4688
41.4993
38.8232
35.3982
31.1808
26.2891
21.0407
15.9118
11.402
7.97043
6.01647
5.8241
7.50768
11.0478
16.1753
22.2882
28.5189
33.9217
37.7086
39.4757
39.3168
37.7123
35.3105
32.7337
30.4845
29.0301
28.8389
30.347
33.6212
37.9882
41.7481
42.2018
36.4457
22.4678
0.244213
-27.5182
-55.4499
-76.7606
-85.072
-76.3881
-50.4944
-11.3268
33.8506
76.3173
108.2
124.389
123.617
108.416
84.074
56.9087
32.4787
14.353
3.57491
-1.05832
-2.05832
-2.09191
-3.05175
-5.6125
-9.26245
-12.7678
-14.7968
-14.471
-11.7197
-7.24174
-2.29003
1.65745
3.34994
2.09353
-2.06537
-8.34092
-15.4498
-21.9939
-26.8893
-29.7266
-30.8261
-31.055
-31.4025
-32.5306
-34.5387
-36.9049
-38.8964
-39.9765
-40.1061
-39.7765
-39.8231
-40.9254
-43.2849
-46.5947
-50.3053
-54.0172
-57.7763
-62.1163
-67.6762
-74.7061
-82.6924
-90.3367
-95.9812
-98.242
-96.6086
-91.7137
-85.21
-79.1737
-75.3938
-74.7722
-77.1405
-81.3266
-85.5995
-88.2052
-87.814
-83.771
-76.0684
-65.2131
-51.9835
-37.2961
-22.1003
-7.38381
5.90636
16.9124
25.0156
29.9867
32.0608
31.909
30.4565
28.6535
27.1865
26.3674
26.1378
26.1808
26.132
25.7927
25.1643
24.3999
23.7246
23.352
23.4055
23.9226
24.9316
26.3906
28.1725
30.0418
31.6856
32.782
33.0888
32.4709
30.9725
28.7414
25.9917
22.9677
20.0263
17.6679
16.4601
16.8946
19.2136
23.1566
27.8995
32.2184
34.8946
35.1431
32.9428
29.0637
24.8656
21.6928
20.461
21.3655
23.9404
27.3169
30.654
33.3731
35.1579
35.8495
35.2569
33.1313
29.3093
23.9117
17.5255
11.2109
6.16362
3.36711
3.2176
5.43989
9.17523
13.2306
16.4645
18.1467
18.104
16.7017
14.6807
12.9008
12.0153
12.2437
13.296
14.5536
15.3042
15.1801
14.3589
13.4848
13.41
14.8091
17.8704
22.1841
26.9175
31.0775
33.7637
34.2315
31.7749
25.588
14.9359
-0.508293
-20.0806
-41.6294
-61.4529
-74.9161
-77.6299
-66.854
-42.6098
-8.08226
30.9196
67.3164
94.5688
108.286
107.251
93.5079
71.5805
47.0417
24.9251
8.46107
-1.47842
-6.09863
-7.7437
-8.77566
-10.633
-13.4447
-16.2663
-17.7869
-17.0806
-14.1209
-9.84335
-5.73855
-3.28118
-3.36142
-5.9508
-10.2408
-15.0422
-19.3104
-22.5354
-24.8469
-26.804
-29.014
-31.6944
-34.5117
-36.7524
-37.7195
-37.1493
-35.3971
-33.3441
-32.0629
-32.4024
-34.6593
-38.5797
-43.5459
-48.8985
-54.1509
-59.0368
-63.4227
-67.1991
-70.1744
-72.1131
-72.8813
-72.5672
-71.479
-70.053
-68.6847
-67.5937
-66.8351
-66.4072
-66.364
-66.8505
-68.0447
-69.9998
-72.3901
-74.43
-74.9988
-72.8804
-67.1418
-57.4575
-44.2595
-28.6888
-12.3801
2.92696
15.7655
25.2323
31.0635
33.6002
33.6984
32.4659
31.0109
30.2343
30.62
32.0808
33.9557
35.1927
34.7273
31.9459
27.0812
21.2543
16.1603
13.5133
14.3981
18.7871
25.4783
32.5745
38.1817
41.0615
40.9902
38.6743
35.2862
31.9223
29.2198
27.2373
25.7007
24.4319
23.5649
23.4687
24.5144
26.7397
29.6764
32.4275
34.0557
34.0049
32.4244
30.1535
28.3715
28.1002
29.747
32.8968
36.4414
39.0555
39.831
38.6544
36.2602
33.9214
32.8733
33.6949
35.9999
38.5552
39.7773
38.3673
33.8628
26.8945
18.9538
11.8794
7.28128
6.00109
7.84709
11.7495
16.1827
19.7371
21.5361
21.4647
20.2059
18.9616
18.939
20.9083
24.862
29.9446
34.6108
37.2227
36.6686
32.9364
27.2177
21.621
18.4832
19.4191
24.6322
32.7083
40.9789
46.2508
45.6937
37.6574
22.1894
1.09348
-22.3636
-43.9493
-59.2176
-64.3783
-57.1591
-37.5619
-8.09647
26.4858
60.1747
87.1615
103.261
106.894
99.3431
84.0823
65.4565
47.3596
32.2705
20.9705
12.9085
6.95333
2.11672
-2.01818
-5.42355
-7.96034
-9.70953
-11.0454
-12.5591
-14.7577
-17.6509
-20.673
-22.9044
-23.4207
-21.6603
-17.6366
-12.0611
-6.13367
-1.27938
1.21784
0.457784
-3.86522
-11.3621
-20.9662
-31.0756
-39.8944
-45.8447
-48.0008
-46.3484
-41.7908
-35.8537
-30.3345
-26.8017
-26.1862
-28.6202
-33.6979
-40.691
-48.8067
-57.3888
-65.9628
-74.1381
-81.4836
-87.5074
-91.7564
-93.9129
-93.932
-92.0467
-88.8219
-84.9514
-81.1017
-77.7496
-75.0622
-72.8605
-70.6406
-67.7205
-63.3835
-57.0977
-48.656
-38.1947
-26.177
-13.2731
-0.229907
12.1621
23.1662
32.1403
38.5492
42.0141
42.4901
40.3935
36.6074
32.4093
29.2222
28.2019
29.8539
33.8356
39.0113
43.8152
46.8139
47.2259
45.1988
41.7297
38.2165
35.8149
35.0049
35.4276
36.0883
35.8629
34.0247
30.5415
26.035
21.4979
17.8719
15.8339
15.7144
17.5746
21.2796
26.5207
32.7777
39.2158
44.7479
48.3515
49.4282
48.105
45.2069
41.951
39.4422
38.1332
37.6661
37.1191
35.5672
32.5721
28.5174
24.5308
22.0414
22.2026
25.3997
30.9936
37.5161
43.0066
45.5874
43.9956
38.0964
28.987
18.7362
9.76823
4.082
2.54233
4.5565
8.38059
11.8992
13.5639
13.0931
11.6074
11.1056
13.4883
19.6242
28.8685
39.1509
47.7412
52.2632
51.5093
45.8852
37.2925
28.518
22.2977
20.3924
23.017
28.6458
34.2839
36.1341
30.6683
15.8173
-8.04159
-37.6751
-67.3227
-89.8483
-98.4919
-88.8605
-60.4651
-17.2868
33.0082
80.9375
117.67
137.285
138.131
122.804
96.8163
66.6801
38.0489
14.6045
-2.12593
-12.2802
-16.8562
-17.1246
-14.4947
-10.5489
-6.98436
-5.31038
-6.3527
-9.84806
-14.47
-18.2838
-19.56
-17.5412
-12.7864
-6.86233
-1.68959
1.17375
0.997938
-2.06343
-7.29637
-13.8156
-20.8522
-27.8591
-34.4787
-40.3389
-44.9922
-48.0903
-49.4821
-49.2649
-47.8256
-45.8026
-43.9634
-43.0546
-43.6685
-46.1724
-50.5653
-56.4272
-62.9902
-69.2736
-74.2731
-77.2599
-77.973
-76.7242
-74.3278
-71.896
-70.5452
-71.1013
-73.9169
-78.7063
-84.5737
-90.2382
-94.3416
-95.752
-93.6948
-87.8317
-78.2426
-65.443
-50.3602
-34.3527
-19.0822
-6.21984
2.96166
8.02298
9.53488
8.86703
7.75248
7.74938
9.79487
13.9984
19.7674
26.0702
31.7383
35.6522
36.8922
34.9605
30.0118
22.9887
15.5332
9.59918
6.93654
8.46516
13.8535
21.5759
29.4634
35.4362
38.1827
37.4824
34.1007
29.3989
24.7933
21.3992
19.9041
20.504
22.9609
26.6311
30.4319
33.0784
33.4463
31.0334
26.3202
20.791
16.5128
15.4611
18.7455
26.1286
36.0992
46.3788
54.6583
59.2877
59.6667
56.2504
50.2209
42.9949
35.7828
29.3918
24.1135
19.9492
16.8236
14.7036
13.6456
13.802
15.3389
18.2254
22.0486
25.9965
29.0374
30.1372
28.7175
24.9807
20.0073
15.4563
13.0104
13.8576
18.2441
25.4239
33.9534
42.2199
48.794
52.7019
53.5258
51.2096
45.8631
37.7115
27.1029
14.4878
0.473464
-13.9729
-27.2849
-37.3717
-41.888
-38.6916
-26.5929
-6.08291
20.2932
48.2346
72.7781
89.6618
96.5599
93.6801
83.5016
69.7376
55.9306
44.4333
35.9942
29.986
25.1275
20.2952
15.0238
9.51039
4.32356
0.191045
-2.39786
-3.33517
-2.83265
-1.28479
0.809186
2.77265
3.89905
3.59364
1.39012
-2.9737
-9.31236
-16.904
-24.5697
-30.8528
-34.3093
-33.9933
-29.9265
-23.2318
-15.9247
-10.2397
-7.92029
-9.57347
-14.4495
-20.771
-26.5821
-30.6429
-32.8159
-33.9342
-35.3513
-38.2214
-42.9016
-48.9681
-55.6113
-62.1659
-68.3347
-74.1095
-79.4774
-83.9801
-86.591
-86.0651
-81.5903
-73.2655
-62.2959
-50.7171
-40.7226
-33.8025
-30.2867
-29.2493
-28.9719
-27.6965
-24.2962
-18.7256
-11.8538
-5.00966
0.648533
4.53139
6.83669
8.52224
10.9288
15.1016
21.4587
29.4505
37.6937
44.5049
48.5111
49.1448
46.8497
42.7743
38.154
33.709
29.4175
24.7878
19.4143
13.5369
8.24941
5.16005
5.75203
10.7339
19.6071
30.707
41.6923
50.3988
55.5169
56.8554
55.1643
51.6687
47.3309
42.4772
36.9093
30.3147
22.8441
15.5319
10.0884
8.36187
11.4826
19.1106
29.4032
39.6317
47.1882
50.5184
49.6516
45.9087
41.1003
36.5494
32.5144
28.3262
23.0655
16.4364
9.2863
3.38216
0.683727
2.39598
8.45418
17.4477
27.1422
35.408
40.909
43.31
43.1363
41.3998
39.0746
36.897
35.2852
34.4582
34.4738
35.2057
36.1543
36.5051
35.1157
30.7705
22.5175
10.1249
-5.70324
-23.329
-40.321
-53.8183
-60.988
-59.5234
-48.0708
-26.6696
2.96218
37.3833
71.7149
100.471
118.752
123.527
114.562
94.5389
68.3516
41.7831
19.8288
5.42485
-1.06624
-1.52021
0.946777
3.245
3.3102
0.476417
-4.54802
-10.2644
-15.1014
-18.0279
-18.7988
-17.8539
-16.0636
-14.2903
-13.1386
-12.8783
-13.4399
-14.5516
-15.8999
-17.2505
-18.544
-19.8489
-21.3338
-23.2144
-25.6306
-28.6089
-32.0312
-35.6835
-39.2735
-42.6483
-45.8642
-49.1971
-52.9746
-57.3331
-61.9745
-66.1388
-68.8669
-69.3413
-67.3044
-63.2456
-58.3369
-54.0061
-51.4469
-51.2105
-53.1692
-56.7356
-61.2399
-66.1842
-71.3692
-76.7762
-82.2444
-87.1745
-90.4299
-90.6139
-86.4883
-77.4605
-63.9658
-47.5336
-30.3882
-14.8019
-2.4854
5.88573
10.8004
13.6539
16.1404
19.5001
24.0874
29.2256
33.4616
35.2235
33.5134
28.409
21.1931
13.9475
8.89707
7.63256
10.5255
16.5976
23.8599
29.9472
32.8886
31.7937
27.1061
20.3649
13.6796
8.96997
7.36129
8.83045
12.3697
16.4221
19.5105
20.7225
19.9493
17.8735
15.6706
14.5296
15.2744
18.1043
22.5
27.472
31.962
35.1186
36.5146
36.0904
33.9764
30.2746
25.0017
18.233
10.3798
2.40898
-4.18176
-7.71804
-6.84996
-1.16558
8.50769
20.2258
31.3691
39.3977
42.59
40.5516
34.3023
25.9348
17.9379
12.4551
10.7323
12.8246
17.7623
24.0785
30.3004
35.4067
39.1495
41.8967
44.091
45.7967
46.3259
44.3021
38.0642
26.3634
9.1573
-11.9755
-33.9528
-52.7824
-64.3958
-65.5424
-54.5476
-31.7332
0.504237
37.9732
75.3187
106.978
128.273
136.382
130.951
114.08
89.6871
62.4361
36.5848
15.1956
-0.186271
-9.40224
-13.232
-12.8712
-9.54693
-4.42027
1.38234
6.7317
10.581
12.0694
10.6939
6.54178
0.292736
-6.96607
-14.0009
-19.6529
-23.1063
-24.0563
-22.7629
-19.9475
-16.5397
-13.4711
-11.4294
-10.7288
-11.3598
-13.1099
-15.7995
-19.3508
-23.7472
-28.9247
-34.6383
-40.4759
-45.9396
-50.6112
-54.3301
-57.1325
-59.1639
-60.5861
-61.442
-61.6982
-61.3592
-60.5877
-59.7237
-59.3287
-59.9859
-62.0735
-65.5727
-70.0318
-74.6264
-78.3531
-80.3237
-80.0058
-77.466
-73.2538
-68.1925
-63.0376
-58.115
-53.1499
-47.3339
-39.643
-29.315
-16.2517
-1.239
14.2112
28.3229
39.5068
46.8216
50.1628
50.1096
47.6396
43.7664
39.3528
35.0418
31.3249
28.5275
26.8747
26.4055
26.8752
27.799
28.5608
28.6434
27.8341
26.2893
24.4985
23.0958
22.6025
23.2034
24.6712
26.4194
27.6744
27.7618
26.3475
23.6072
20.1916
17.0905
15.3636
15.7908
18.638
23.4609
29.1544
34.1746
36.9828
36.5843
32.9342
27.0431
20.6893
15.8529
14.0249
15.704
20.2269
25.9899
31.0025
33.4676
32.2667
27.2432
19.1761
9.65667
0.689279
-5.75244
-8.15133
-5.85343
0.712545
10.0495
19.9426
28.0616
32.6327
32.9669
29.6821
24.48
19.4911
16.5691
16.6056
19.3366
23.5656
27.7186
30.4563
31.0708
29.5644
26.3529
21.8846
16.2379
9.06886
-0.140521
-11.6088
-24.7327
-37.8405
-48.2942
-53.0362
-49.477
-36.3943
-14.5387
13.2766
42.6897
68.7787
87.2713
95.5396
93.1004
81.5482
64.0021
44.1785
25.4911
10.4038
0.0562975
-5.60525
-7.51737
-7.05582
-5.64181
-4.46395
-4.28535
-5.42841
-7.73323
-10.689
-13.5456
-15.5355
-16.0912
-15.0447
-12.7288
-9.86608
-7.36547
-6.0487
-6.40351
-8.50998
-12.0181
-16.3145
-20.7491
-24.7797
-28.0985
-30.6304
-32.4531
-33.6813
-34.4237
-34.7547
-34.7882
-34.7873
-35.2386
-36.8072
-40.1767
-45.7358
-53.3205
-62.0508
-70.4855
-76.9803
-80.1884
-79.5729
-75.6139
-69.6717
-63.495
-58.6465
-55.9768
-55.4443
-56.2877
-57.4558
-58.0983
-57.8545
-56.8864
-55.6171
-54.3858
-53.1726
-51.5704
-48.8602
-44.2146
-36.9886
-26.9192
-14.3075
-0.014804
14.5542
27.6674
37.6113
43.2041
44.1433
41.1674
35.8944
30.3703
26.4267
25.1085
26.4136
29.4338
32.7855
35.0992
35.4954
33.7912
30.4391
26.2292
22.0521
18.6823
16.7086
16.4303
17.736
20.0834
22.461
23.6434
22.6106
19.0007
13.3958
7.22863
2.33565
0.304743
1.86878
6.63705
13.3843
20.5624
26.8227
31.3934
34.1283
35.18
34.6547
32.4697
28.5455
23.0035
16.5065
10.2238
5.5208
3.43733
4.19016
7.07949
10.8921
14.4427
16.9997
18.4534
19.2072
19.6664
19.8298
19.2292
17.2558
13.644
8.87855
4.24249
1.43514
1.90214
6.20611
13.8131
23.1927
32.2806
39.0766
42.1947
41.1026
36.208
28.7403
20.4149
12.985
7.74203
5.04811
4.08021
3.03513
-0.293218
-7.55851
-18.8326
-32.1033
-43.6347
-48.9182
-44.2175
-28.0338
-1.93109
29.659
60.6535
85.0379
98.4762
99.3406
88.8919
70.5888
48.9688
28.3895
12.1103
1.77366
-2.70609
-2.7745
-0.569946
1.7496
2.6085
1.28829
-1.93223
-6.14115
-10.1223
-12.8582
-13.8951
-13.4871
-12.4691
-11.8898
-12.5851
-14.8629
-18.3163
-21.9855
-24.6629
-25.352
-23.6152
-19.7476
-14.6755
-9.73964
-6.27296
-5.1648
-6.64911
-10.2889
-15.2243
-20.5029
-25.5436
-30.427
-35.7696
-42.2627
-50.1794
-58.9506
-67.1827
-73.0849
-75.2301
-73.1426
-67.6648
-60.7666
-54.8595
-51.8775
-52.5898
-56.456
-61.937
-67.2289
-71.1122
-73.3015
-74.2757
-74.7532
-75.0474
-74.6945
-72.6587
-67.8552
-59.7524
-48.7176
-35.9639
-22.9605
-10.8337
-0.0566583
9.54283
18.4267
26.911
34.8913
41.8667
47.1306
50.1393
50.8229
49.6386
47.3221
44.5385
41.6867
38.7824
35.5245
31.5404
26.7778
21.6952
17.2402
14.6686
15.135
19.2007
26.543
35.946
45.5467
53.3054
57.5677
57.5547
53.5308
46.7094
38.7837
31.4293
25.7993
22.2057
20.1401
18.6841
16.9946
14.7601
12.4734
11.3457
12.7773
17.6683
25.8024
35.7584
45.2305
51.8665
54.2139
52.2466
47.2645
41.2713
36.0559
32.4223
30.0881
28.1382
25.7499
22.748
19.6764
17.4217
16.7018
17.5868
19.3825
21.0237
21.6197
20.8755
19.1415
17.2086
15.8986
15.6445
16.2983
17.2805
17.9237
17.8022
16.8744
15.3843
13.7236
12.3037
11.4885
11.5843
12.8143
15.2468
18.7248
22.7183
26.3431
28.7034
29.2145
27.887
25.2809
22.1242
18.7927
14.8598
9.06835
-0.0287079
-13.0153
-28.732
-43.939
-53.9435
-54.0009
-41.0746
-15.2124
20.0723
58.5684
93.0901
117.401
127.689
123.229
106.224
80.9625
52.6368
26.1716
5.32819
-7.89137
-13.4202
-12.8937
-9.00443
-4.5676
-1.71115
-1.38264
-3.3347
-6.55601
-9.96373
-12.9592
-15.5299
-17.9887
-20.5858
-23.2461
-25.568
-27.1404
-27.899
-28.2291
-28.7313
-29.7836
-31.1913
-32.1519
-31.6825
-29.2682
-25.3329
-21.2156
-18.6867
-19.1831
-23.1502
-29.8138
-37.5398
-44.648
-50.0985
-53.8885
-56.8352
-60.0256
-64.152
-69.1322
-74.1555
-78.1455
-80.3517
-80.6725
-79.7547
-78.7176
-78.6459
-80.1312
-83.1144
-86.9622
-90.6902
-93.3263
-94.1898
-92.9897
-89.7939
-84.8932
-78.6369
-71.272
-62.9064
-53.5618
-43.2809
-32.1967
-20.6407
-9.17716
1.46193
10.5865
17.6857
22.5584
25.3279
26.3705
26.14
25.0271
23.2984
21.1423
18.8495
16.9116
15.9667
16.646
19.3661
24.0448
30.0047
36.1321
41.1612
44.0233
44.1299
41.4699
36.5591
30.3062
23.8142
18.1458
14.1342
12.2014
12.2938
13.8391
15.9306
17.6893
18.6009
18.7734
18.9411
20.1442
23.2526
28.4657
35.0343
41.4361
45.8542
46.8575
43.9828
37.9272
30.3102
23.1952
18.3906
16.8975
18.694
22.8602
27.9111
32.2028
34.4703
34.186
31.7094
28.104
24.7892
22.9809
23.1731
24.9571
27.2331
28.7497
28.7585
27.4023
25.6979
25.0625
26.5963
30.4296
35.5661
40.1647
42.3012
40.6782
35.134
26.6778
17.1064
8.36957
2.00533
-1.22098
-1.38879
0.777047
4.23214
7.94425
11.1588
13.6053
15.4551
17.1545
19.1737
21.7891
24.933
28.2004
31.0195
32.8394
33.3428
32.551
30.7566
28.4386
26.0427
23.7564
21.2822
17.875
12.4842
4.17738
-7.39315
-21.5339
-36.2877
-48.6413
-55.1296
-52.7286
-39.7423
-16.4928
14.4189
48.5407
80.4573
104.995
118.346
118.85
107.255
86.3832
60.37
33.6997
10.2727
-7.25207
-17.727
-21.4208
-19.6794
-14.471
-7.86428
-1.63347
2.95249
5.25937
5.27443
3.4094
0.228171
-3.80538
-8.49648
-13.809
-19.6588
-25.664
-31.0172
-34.6684
-35.7211
-33.9034
-29.7649
-24.565
-19.8818
-17.1024
-17.0133
-19.6443
-24.4618
-30.6305
-37.3049
-43.7832
-49.5846
-54.4242
-58.1785
-60.8904
-62.7166
-63.8478
-64.4687
-64.7171
-64.669
-64.3769
-63.9631
-63.6784
-63.8855
-64.9611
-67.1772
-70.5876
-75.0072
-79.9869
-84.8766
-88.9137
-91.3352
-91.5272
-89.1542
-84.3119
-77.5402
-69.6789
-61.5994
-53.9269
-46.7804
-39.8524
-32.6121
-24.6291
-15.8117
-6.48556
2.69197
10.9305
17.536
22.0061
24.13
24.0508
22.337
19.937
18.0214
17.7308
19.8077
24.2638
30.2905
36.4486
41.1105
42.9972
41.5894
37.2916
31.231
24.8806
19.5516
16.0416
14.4865
14.4747
15.2954
16.2425
16.7835
16.7395
16.3159
16.0186
16.4222
17.9387
20.5664
23.8285
26.8131
28.4913
28.117
25.5554
21.3988
16.7698
13.0057
11.1922
11.8117
14.6478
18.9288
23.6885
28.1514
31.9076
34.8856
37.0937
38.3251
37.9616
35.1834
29.4428
20.9966
11.2064
2.35741
-3.06453
-3.28873
1.97682
11.3677
22.3414
32.1598
38.8411
41.729
41.3585
38.8299
35.0537
30.3313
24.5113
17.519
9.91376
3.07119
-1.3285
-2.02514
1.17443
7.2045
14.12
19.9074
23.2078
23.6054
21.4008
17.2239
11.7394
5.54567
-0.641765
-5.85625
-9.02001
-9.20814
-6.0816
-0.169783
7.24018
14.4717
19.9128
22.3775
21.2986
16.8053
9.70191
1.45479
-5.9352
-10.2133
-9.45076
-2.80477
8.92254
23.1131
35.8672
43.0784
41.6078
30.3614
10.6833
-14.0318
-39.1603
-59.9312
-72.3056
-73.645
-63.1005
-41.6867
-12.2128
20.9844
52.8338
78.4254
93.8993
97.2768
88.8189
70.7751
46.7891
21.118
-2.22226
-20.1952
-31.1491
-34.9846
-33.0168
-27.5217
-21.0724
-15.8044
-12.8587
-12.1944
-12.8233
-13.3746
-12.7487
-10.6013
-7.57419
-4.92402
-4.01534
-5.76556
-10.2724
-16.7844
-24.0033
-30.5849
-35.637
-38.8283
-40.3075
-40.5058
-39.951
-39.045
-38.1231
-37.5139
-37.5515
-38.5105
-40.5541
-43.6774
-47.6384
-52.039
-56.3267
-59.8184
-61.9012
-62.1575
-60.5549
-57.644
-54.5486
-52.6713
-53.1156
-56.2412
-61.4851
-67.5124
-72.8091
-76.355
-77.9968
-78.4395
-78.7135
-79.5298
-80.7802
-81.4655
-80.1579
-75.7291
-67.7281
-56.5832
-43.4003
-29.5086
-15.9318
-3.3131
7.92891
17.4635
24.8782
29.7655
31.8939
31.2465
28.079
22.9194
16.4814
9.50284
2.87701
-2.26696
-4.79315
-3.96465
0.198624
6.78325
14.2119
20.761
25.1906
27.1731
27.2905
26.6334
26.3029
26.8641
28.1469
29.4099
29.8635
29.1562
27.5547
25.8513
24.9216
25.0788
25.6698
25.1095
21.62
14.1462
3.22063
-8.83395
-18.2162
-20.7732
-13.7934
2.81564
26.0973
50.6105
70.0524
79.3502
76.4009
62.908
43.5003
24.0241
9.56048
2.79356
3.4271
8.93272
15.7615
20.7777
22.2708
20.28
16.2656
12.2816
10.0809
10.5713
13.7901
19.1955
26.1036
33.9866
42.2176
49.6309
54.0098
52.5604
43.0311
24.896
0.48711
-24.9933
-44.7863
-52.8015
-45.9009
-25.2394
3.95259
34.0294
57.6012
70.1008
70.9474
62.9783
50.6285
37.9913
27.6464
20.4101
15.9513
13.7112
13.0275
12.3579
8.6538
-2.24104
-23.912
-56.9833
-97.1813
-135.245
-159.173
-158.316
-127.447
-69.1758
6.35686
84.6279
151.167
195.537
213.56
207.18
182.43
146.707
106.626
67.0653
31.1156
0.551876
-23.7962
-41.8171
-53.5895
-59.1892
-58.7074
-52.3284
-40.6676
-25.4476
-9.73693
2.63184
8.36907
6.13031
-2.81769
-15.066
-26.591
-34.687
-39.1132
-41.765
-45.2036
-50.7348
-57.3457
-61.996
-61.3594
-53.7857
-40.6062
-25.9725
-15.1179
-11.994
-17.5008
-29.2739
-42.8726
-53.9715
-60.2506
-62.0994
-61.8642
-62.2514
-64.7983
-69.3074
-74.434
-78.8402
-82.2402
-85.6876
-90.7944
-98.3838
-107.526
-115.501
-118.896
-115.203
-104.082
-87.8136
-70.4874
-56.4711
-48.8395
-48.4742
-54.1476
-63.4024
-73.5226
-82.1653
-87.5606
-88.3311
-83.4889
-72.6546
-56.5108
-37.0698
-17.3709
-0.539377
11.2414
17.4336
19.039
17.9239
15.8844
14.0522
12.7723
12.0269
11.97
13.0212
15.5189
19.2638
23.2755
26.0073
26.1486
23.312
18.3429
12.8557
8.45627
5.91323
4.90563
4.47088
3.82264
3.01326
2.95638
4.76328
8.88185
14.6474
20.386
24.2823
25.3732
24.0624
21.787
20.1668
20.1482
21.5649
23.3134
24.116
23.2314
20.8258
17.8392
15.4287
14.515
15.5927
18.7086
23.6298
29.8787
36.7635
43.263
48.1691
50.3025
48.9421
44.0407
36.2743
26.8951
17.4097
9.1892
3.35156
0.606996
1.11867
4.50828
9.83711
15.7065
20.5623
23.3
23.681
22.396
20.7508
20.1362
21.3382
24.1538
27.5519
30.1805
31.0194
29.9083
27.5094
25.0029
23.548
23.8055
25.7127
28.6501
31.8249
34.5514
36.3516
36.9068
35.8664
32.6942
26.609
16.9064
3.4351
-12.8805
-29.7845
-43.8379
-51.0781
-48.061
-32.963
-6.45811
28.0581
65.0802
98.3045
122.137
133.033
130.243
115.85
94.0011
69.6448
47.2203
29.6904
18.1073
11.6946
8.52233
6.43846
3.91363
0.394579
-3.67685
-7.21694
-9.16732
-8.9664
-6.78826
-3.56553
-0.580954
1.06558
0.859837
-0.879061
-3.12841
-4.64141
-4.67506
-3.3591
-1.84076
-1.79848
-4.62215
-10.6955
-19.0383
-27.6111
-34.0683
-36.717
-35.1903
-30.5182
-24.6424
-19.5176
-16.5091
-16.1042
-18.1418
-22.2374
-28.2017
-36.1052
-45.9438
-57.2352
-68.6674
-78.2499
-83.9559
-84.415
-79.4795
-70.4449
-59.6472
-49.7462
-43.0004
-40.6811
-42.6416
-47.5303
-53.2245
-57.5094
-58.7902
-56.6215
-51.8495
-46.2463
-41.7015
-39.305
-38.6599
-37.8518
-34.1113
-24.9831
-9.47191
11.3518
34.4802
55.8854
71.7936
79.8544
79.6826
72.7483
61.631
49.1788
37.7879
29.063
23.8236
22.3013
24.2748
29.1158
35.8053
43.0594
49.5002
53.9873
55.9309
55.4403
53.1537
49.8857
46.3261
42.9269
39.8638
37.1779
34.8118
32.5551
30.0215
26.6575
21.973
15.9343
9.37019
3.96542
1.81004
4.67776
13.2875
26.8085
42.9147
58.4297
70.164
75.749
74.1971
66.0873
53.3656
38.8215
25.4629
15.8079
11.339
12.296
17.7659
25.953
34.7748
42.4126
47.6249
49.7287
48.5736
44.45
38.014
30.3947
23.088
17.7512
15.7016
17.3541
21.8304
27.1406
30.9553
31.5534
28.5934
23.2677
17.8391
14.5173
14.5045
17.5981
22.3642
26.8789
29.5015
29.3299
26.2425
20.7328
13.7358
6.42272
0.131321
-3.62005
-3.46485
1.33787
10.3943
22.0261
33.4413
41.3504
42.9361
36.6545
22.8046
3.54551
-17.4776
-35.9225
-47.6171
-49.4397
-39.9566
-19.7781
8.44727
40.49
71.2782
95.9753
110.981
114.641
107.514
91.9872
71.4729
49.5688
29.2815
12.5689
0.246966
-7.72376
-11.8965
-13.0959
-12.1788
-10.0214
-7.46102
-5.34618
-4.45654
-5.32009
-8.09204
-12.4322
-17.5168
-22.1048
-24.9001
-24.9632
-22.1088
-17.101
-11.6094
-7.77383
-7.4739
-11.6461
-19.8746
-30.5096
-41.1835
-49.6342
-54.4217
-55.2524
-52.8298
-48.3584
-43.0851
-37.9761
-33.6971
-30.7907
-29.8593
-31.5851
-36.5241
-44.7575
-55.651
-67.8769
-79.6975
-89.4686
-96.0451
-99.0251
-98.6962
-95.7959
-91.1938
-85.6905
-79.9942
-74.7908
-70.7601
-68.4189
-67.9623
-69.0915
-70.9914
-72.454
-72.2615
-69.5047
-63.8276
-55.4302
-44.8385
-32.7004
-19.6429
-6.30178
6.65858
18.5039
28.4824
36.0246
40.9106
43.3406
43.7594
42.4993
39.578
34.7233
27.6837
18.7557
9.13893
0.912083
-3.61358
-2.83686
3.30711
13.1218
23.6803
31.8914
35.7161
34.9292
31.0702
26.5872
23.8151
23.972
26.8544
31.1419
35.0723
37.0928
36.3284
32.7175
26.8878
19.8652
12.8451
7.07754
3.72016
3.57818
6.83568
12.9687
20.8355
29.1252
36.7451
43.0407
47.7199
50.6133
51.2468
48.7139
42.1371
31.3601
17.6347
3.75433
-6.59483
-10.0603
-4.91836
8.11706
25.8885
43.8192
57.3737
63.4081
60.9886
51.3865
37.3894
22.2294
8.7342
-1.19254
-6.768
-8.24882
-6.71129
-3.69737
-0.883444
0.37363
-0.417058
-2.78883
-5.41221
-6.49316
-4.47108
1.22359
9.88776
19.7545
28.6071
34.5578
36.6382
35.1031
31.2799
27.0548
24.1426
23.4566
24.75
26.6744
27.1272
23.8876
15.2165
0.627248
-18.6545
-39.5678
-57.6096
-67.8256
-66.0805
-50.2946
-21.3308
16.8129
57.868
94.8524
121.748
134.892
133.672
120.179
98.2899
72.4705
46.6626
23.7737
5.52861
-7.43484
-15.4077
-19.3888
-20.8891
-21.4832
-22.3299
-23.747
-25.2008
-25.7751
-24.8882
-22.8885
-21.0665
-21.157
-24.4349
-30.8615
-38.9255
-46.2682
-50.7099
-51.2562
-48.4751
-44.0436
-39.8716
-37.1652
-36.0751
-35.897
-35.7496
-35.2352
-34.6612
-34.7405
-36.005
-38.426
-41.4271
-44.333
-46.8568
-49.3746
-52.6651
-57.4389
-63.8696
-71.4271
-79.1544
-86.1111
-91.7701
-96.1336
-99.4681
-101.837
-102.817
-101.69
-97.9308
-91.7121
-84.2243
-77.5663
-73.9561
-74.7656
-79.6377
-86.3885
-91.6291
-91.9894
-85.4566
-72.2222
-54.6836
-36.55
-21.3978
-11.3163
-6.34848
-4.74418
-3.86989
-1.40797
3.6464
10.7945
18.4619
24.7325
28.1637
28.2063
25.2234
20.2864
14.8349
10.2771
7.71029
7.75182
10.3608
14.749
19.5208
23.2231
24.8515
24.2839
22.3637
20.4471
19.7659
20.7488
22.7054
24.1378
23.5558
20.3158
15.0821
9.67394
6.34785
6.91564
11.919
20.3272
29.9884
38.3336
43.2841
43.8367
40.24
33.7807
26.2887
19.5288
14.8085
12.9024
14.0671
18.1158
24.4371
31.9908
39.3058
44.6632
46.4341
43.6071
36.2178
25.5341
13.7244
3.23577
-3.903
-6.55003
-4.63942
0.939325
8.89274
17.8932
26.8793
34.9541
41.244
44.8057
44.6983
40.3262
31.884
20.7507
9.38398
0.75312
-2.5432
0.900632
10.8009
25.1043
40.5077
53.2631
60.1156
59.0626
49.6861
33.1523
11.8717
-11.1086
-32.6368
-49.8578
-60.4112
-62.441
-54.7446
-37.0857
-10.5899
22.0329
56.5249
87.7069
110.44
120.942
117.954
103.171
80.8267
56.47
35.3342
20.6366
12.6969
9.30638
7.00472
2.81151
-4.36185
-13.3164
-21.2883
-25.3809
-24.0793
-17.99
-9.50867
-1.68381
3.12914
4.32971
3.14187
1.83909
2.58595
6.22592
11.7763
16.773
18.2522
13.9884
3.41808
-12.0485
-29.3963
-44.8772
-55.1618
-58.3235
-54.3231
-44.9226
-33.2049
-22.6413
-15.9614
-14.4175
-17.6079
-23.8392
-30.9249
-37.1437
-41.9084
-45.8185
-50.1425
-56.0789
-64.036
-73.3305
-82.3814
-89.2994
-92.5262
-91.2762
-85.7281
-76.839
-65.9018
-54.1619
-42.6151
-31.9474
-22.5823
-14.8385
-9.01885
-5.3916
-4.12435
-5.1739
-8.18353
-12.4233
-16.7444
-19.5203
-18.9179
-13.423
-2.41203
13.4063
31.8562
49.7053
63.6045
71.1088
71.4282
65.5624
55.8076
44.865
34.9592
27.3718
22.469
20.0709
19.83
21.5621
25.1937
30.4575
36.5687
42.3365
46.4372
47.8632
46.3173
42.3465
37.0801
31.666
26.8449
22.7709
19.2189
16.0061
13.3606
12.0226
12.8839
16.5399
22.9175
31.1318
39.6197
46.6665
50.9902
52.0334
49.9714
45.4902
39.4243
32.4996
25.1864
17.8253
10.8745
5.04021
1.17652
-0.0897281
1.48871
5.58065
11.3349
17.5939
23.2885
27.6062
30.0074
30.1641
27.9418
23.4782
17.4243
11.05
6.07479
4.13501
6.25736
12.4098
21.3228
30.7981
38.5378
42.9446
43.5159
40.706
35.4452
28.4774
19.9317
9.33765
-3.74627
-19.0545
-35.0801
-49.0146
-57.3274
-56.6631
-44.8382
-21.6449
10.756
48.0472
84.5047
114.079
131.636
134.175
121.579
96.7598
65.0302
32.8011
5.98779
-11.35
-17.8978
-15.182
-6.89228
2.38878
8.54802
9.03124
3.41314
-6.57695
-17.6373
-26.0517
-28.9633
-25.2934
-16.1916
-4.68748
5.40658
10.7693
9.70667
2.63393
-8.20899
-19.7558
-29.2504
-35.0613
-36.9953
-35.9644
-33.357
-30.4063
-27.8559
-25.8925
-24.5135
-23.8233
-24.1503
-26.028
-29.9547
-36.0923
-44.0221
-52.7609
-61.0186
-67.5026
-71.3216
-72.2905
-70.967
-68.5247
-66.3836
-65.7515
-67.2719
-70.8631
-75.8417
-81.2498
-86.1313
-89.7797
-91.8486
-92.2188
-90.7647
-87.2606
-81.3839
-72.8331
-61.5094
-47.7558
-32.4306
-16.866
-2.48246
9.50745
18.3123
23.724
26.1345
26.2989
25.056
23.1171
20.9735
18.9788
17.3939
16.6235
17.1351
19.2762
23.0294
27.8635
32.7931
36.6844
38.6071
38.277
36.1399
33.0935
30.1177
27.9318
26.808
26.5705
26.8485
27.3823
28.101
29.0032
30.0228
30.9301
31.2132
30.1389
27.1665
22.3128
16.3333
10.7249
7.3259
7.67059
12.3471
20.5871
30.3901
39.1796
44.5781
45.2323
41.2988
34.3446
26.8281
21.2096
19.1322
20.8624
25.1838
29.8261
32.1908
30.2732
23.3557
12.3803
-0.129235
-10.7791
-16.3843
-15.0329
-6.7556
6.43613
21.1792
33.9523
42.224
45.1729
43.7244
39.8184
35.5198
32.2792
30.5993
30.1527
30.26
30.3436
30.1184
29.3782
27.8326
24.973
20.1676
12.7547
2.4451
-10.5124
-25.2659
-40.4117
-53.9331
-63.2707
-65.4843
-57.7724
-38.2989
-7.23302
32.4948
75.1769
113.354
139.663
148.994
140.084
115.905
82.6695
47.7685
17.5001
-4.56563
-18.1353
-25.3792
-29.4009
-32.6254
-35.9037
-38.6242
-39.383
-37.1067
-31.8614
-25.0929
-19.0756
-16.0741
-17.4166
-22.8556
-30.6568
-38.2825
-43.3148
-44.3957
-41.7699
-37.1711
-33.0503
-31.5617
-33.6824
-38.8457
-45.3002
-51.0168
-54.5998
-55.865
-55.7287
-55.575
-56.4899
-58.7405
-61.7667
-64.7089
-66.9271
-68.3643
-69.5287
-71.1053
-73.4999
-76.6174
-80.0475
-83.4062
-86.6074
-89.8447
-93.2507
-96.6314
-99.3445
-100.493
-99.4328
-96.1967
-91.5008
-86.3871
-81.6845
-77.5478
-73.4464
-68.5156
-62.1936
-54.5815
-46.415
-38.6404
-31.7946
-25.6634
-19.3552
-11.7876
-2.34017
8.68039
19.9608
29.582
35.7442
37.4868
35.0664
29.8354
23.7061
18.4638
15.2208
14.2069
14.9318
16.6266
18.5839
20.3522
21.7171
22.5397
22.6317
21.7385
19.7123
16.7065
13.2394
10.0116
7.65452
6.52066
6.54283
7.41082
8.863
10.9375
13.9982
18.4422
24.2949
30.9334
37.1039
41.3647
42.7005
41.0227
37.2171
32.7687
29.1008
26.9375
26.0244
25.383
23.9631
21.2146
17.4699
13.8238
11.6241
11.8011
14.4305
18.716
23.3799
27.1529
29.2535
29.4401
27.8285
24.6273
20.0278
14.2935
8.01258
2.30075
-1.43047
-1.91084
1.4136
8.00044
16.3339
24.4883
30.7736
34.3032
35.1377
33.9983
31.8018
29.2892
26.9388
25.0277
23.6756
22.8254
22.1826
21.0056
18.2196
12.7675
4.1027
-7.48172
-20.706
-33.4556
-43.1982
-47.4613
-44.1594
-32.0045
-10.9685
17.3326
49.4483
80.4009
104.628
117.435
116.378
102.183
78.6237
51.3283
26.0999
7.28585
-3.23812
-6.0918
-3.56244
1.47494
6.48774
9.7931
10.6005
8.82867
4.81387
-0.757181
-6.94081
-12.7035
-17.1432
-19.8521
-21.1264
-21.9257
-23.4433
-26.5022
-31.0286
-35.9064
-39.3311
-39.5813
-35.8283
-28.6297
-19.9745
-12.6849
-9.41491
-11.6923
-19.404
-30.7737
-42.9546
-53.0288
-58.8727
-59.7134
-56.2519
-50.3096
-44.1553
-39.9229
-39.1902
-42.7407
-50.5108
-61.6215
-74.4779
-87.0336
-97.1242
-102.978
-103.777
-99.9684
-93.189
-85.7387
-79.6792
-76.1013
-74.7624
-74.3614
-73.2535
-70.328
-65.4737
-59.4948
-53.4315
-47.8378
-42.2657
-35.4043
-25.7899
-12.6378
3.41693
20.2575
34.8961
44.4115
46.9606
42.4562
32.6012
20.3839
9.21292
1.96115
0.19142
3.92063
11.7481
21.3533
30.2307
36.4198
38.8809
37.5687
33.2301
26.9852
19.933
13.0214
7.07693
2.85422
0.983602
1.8795
5.48849
11.1633
17.719
23.77
28.1735
30.3433
30.4109
29.0507
27.0744
25.1765
23.7375
22.7797
22.1356
21.6279
21.1654
20.7786
20.5103
20.2806
19.8398
18.9482
17.5063
15.8033
14.5742
14.9005
17.6635
23.0199
30.1605
37.326
42.2181
42.7614
37.9655
28.4337
16.3117
4.54608
-4.11844
-8.04666
-7.20769
-2.91609
2.78634
8.01563
11.7218
13.8142
14.8156
15.4154
16.0394
16.7444
17.3707
17.7183
17.7449
17.6624
17.8469
18.5472
19.9129
21.8884
24.1629
26.0722
26.6578
24.9276
20.1125
11.8581
0.498125
-12.7726
-26.1945
-37.8594
-45.9094
-48.6879
-44.9751
-34.0847
-16.093
7.71317
34.5584
60.34
80.4084
90.8454
89.8742
78.6419
60.984
42.1229
26.8659
17.9213
15.1829
16.1336
17.2666
15.8111
10.7383
2.90303
-5.73375
-13.2772
-18.8536
-22.8188
-26.2182
-29.8748
-33.6589
-36.4983
-36.9184
-33.7568
-26.8984
-17.583
-7.94174
-0.262002
3.7423
3.4997
-0.463928
-6.87861
-14.3146
-21.7073
-28.5257
-34.5861
-39.7282
-43.6791
-46.1428
-47.1351
-47.2816
-47.8518
-50.376
-55.8566
-63.9966
-72.9758
-79.8435
-81.7533
-77.2586
-67.1849
-54.5537
-43.5492
-37.8763
-39.3161
-47.0702
-58.2383
-69.1908
-77.0988
-80.9268
-81.3798
-79.9256
-77.653
-74.4437
-69.0646
-59.9708
-46.4427
-29.423
-11.4847
4.00821
14.2997
18.3195
17.086
13.2477
9.94213
9.52757
12.7934
18.8586
25.8797
32.0231
36.2201
38.4463
39.4617
40.2227
41.2678
42.4226
42.9897
42.1475
39.385
34.7731
28.9203
22.7752
17.4667
14.0142
13.151
15.1712
19.8431
26.2339
32.8412
37.9004
39.8603
37.9215
32.3214
24.2589
15.6544
8.51172
4.32784
3.79608
6.77152
12.3645
19.2365
25.8206
30.6475
32.6369
31.4427
27.5417
22.1555
17.0515
13.9676
13.9417
16.9912
22.0434
27.3005
30.9138
31.5658
28.9775
24.0536
18.4674
14.0662
12.2178
13.2158
16.0729
18.9492
19.8666
17.5697
12.1458
5.04622
-1.49457
-5.36875
-5.47323
-2.29015
2.38714
6.27556
7.70593
6.31521
3.21154
0.493639
0.354087
4.15423
11.8167
21.862
31.9263
39.5363
42.8932
41.4632
36.0142
28.2712
20.2829
13.5509
8.46137
4.18517
-1.05195
-9.1092
-20.9145
-35.7122
-50.8641
-62.4908
-66.4456
-59.5395
-40.5906
-11.0205
25.2853
62.7377
95.1617
117.131
125.126
118.348
98.9017
71.2573
41.1114
13.9638
-6.20548
-17.7995
-21.5914
-20.0093
-16.0498
-12.3237
-10.4113
-10.7116
-12.7893
-15.8379
-19.0274
-21.7102
-23.422
-23.9185
-23.2002
-21.5762
-19.7726
-18.7533
-19.4456
-22.4038
-27.5277
-33.9695
-40.3339
-45.1092
-47.1732
-46.1731
-42.5662
-37.4886
-32.4148
-28.7543
-27.5194
-29.2535
-34.0649
-41.5858
-50.9958
-61.0755
-70.3046
-77.1132
-80.3358
-79.626
-75.6629
-70.0036
-64.6537
-61.396
-61.2658
-64.2139
-69.2422
-74.8938
-79.8148
-83.2689
-85.2632
-86.4213
-87.561
-89.1898
-91.0721
-92.2402
-91.209
-86.4118
-76.9251
-62.8722
-45.5439
-27.0994
-10.0114
3.64211
12.7742
17.4971
18.8745
18.5082
17.9056
18.07
19.3326
21.4155
23.7365
25.7247
27.0385
27.6608
27.8335
27.8019
27.5747
26.9283
25.5442
23.298
20.5175
18.0314
16.8878
17.8477
20.8868
25.0789
28.9445
31.0489
30.7602
28.5196
25.6027
23.4704
23.0507
24.3078
26.3637
28.0255
28.4695
27.6597
26.3725
25.7413
26.5988
29.1171
32.7011
36.187
38.3049
38.1084
35.2637
30.1257
23.7524
17.6317
13.3156
11.9999
14.1153
19.143
25.6892
31.9787
36.5325
38.7057
38.8158
37.9458
37.2042
37.1361
37.455
37.2352
35.5296
32.0241
27.3263
22.8059
19.9983
19.8435
22.1543
25.6791
28.7104
29.8935
28.8244
26.1557
23.1702
21.0532
20.1721
19.8849
18.8897
16.0251
11.0303
4.9238
-0.27998
-2.40902
-0.0642612
6.67998
16.154
25.6362
32.4111
34.7387
32.5294
27.3219
21.6233
18.0023
18.1092
22.0906
28.6172
35.4108
39.9446
40.1329
34.8365
24.001
8.55804
-9.74828
-28.5729
-45.1473
-56.5111
-59.9188
-53.4448
-36.517
-10.3293
22.0791
56.2297
87.0674
109.957
121.672
121.087
109.367
89.6183
66.085
43.0746
23.9116
10.2311
1.80752
-2.99689
-6.34216
-10.0033
-14.7792
-20.2614
-25.0995
-27.6927
-26.9437
-22.6587
-15.7274
-7.97484
-1.71481
0.96053
-1.1066
-7.71892
-17.2901
-27.204
-34.6772
-37.7441
-35.9712
-30.4871
-23.4454
-17.123
-13.0965
-11.8529
-12.9913
-15.8539
-20.1073
-25.8441
-33.2448
-42.0082
-51.0454
-58.6429
-63.1613
-63.9124
-61.6285
-58.2207
-56.0479
-56.8881
-61.0589
-67.4191
-74.0135
-79.0501
-81.7454
-82.4872
-82.4056
-82.6522
-83.6893
-85.008
-85.4619
-84.0493
-80.466
-75.2057
-69.3542
-64.0272
-59.6977
-55.9018
-51.4582
-45.0242
-35.6758
-23.3353
-8.81243
6.43229
20.7823
32.9384
42.029
47.537
49.3168
47.6009
43.0895
37.0404
31.0651
26.6918
24.7487
25.0382
26.5026
27.7957
28.0002
27.1829
26.4241
27.2438
30.6233
36.3462
43.0503
48.5588
50.795
48.6788
42.5184
33.8537
24.874
17.6506
13.5777
13.1356
16.0414
21.475
28.3326
35.3005
41.0018
44.1749
43.9729
40.1755
33.4942
25.4668
18.0924
13.2557
12.225
15.3174
21.8311
30.3137
38.9027
45.8094
49.8109
50.4718
48.1595
43.9503
39.1691
34.9659
31.9175
29.8867
28.3205
26.6483
24.7174
23.0264
22.5906
24.5003
29.2719
36.4367
44.5299
51.5782
55.8208
56.3728
53.4534
48.258
42.3684
37.0966
33.0147
29.9605
27.4312
24.9412
22.3075
19.709
17.4931
15.9609
15.1938
14.9045
14.7853
14.7086
14.8143
15.3556
16.5315
18.1742
19.4154
18.8425
15.0937
7.51343
-3.16189
-14.6858
-23.8105
-27.336
-23.2769
-11.7091
5.05083
23.204
38.8076
49.1306
53.4601
52.8425
49.2161
44.2075
38.1381
29.9739
18.0932
1.63428
-18.3146
-38.5244
-54.5007
-61.759
-57.4593
-41.5794
-16.9339
11.8002
39.5043
62.032
77.1388
84.5861
85.4771
81.4419
73.9487
64.0401
52.5062
40.1629
28.0771
17.3625
8.9111
3.17999
0.0551259
-0.977039
-0.686101
0.157753
0.99393
1.4739
1.47357
0.917656
-0.211183
-1.97182
-4.68604
-8.98178
-15.367
-23.9082
-33.7862
-43.1511
-49.439
-50.2159
-44.0867
-31.4468
-14.6907
2.4554
16.1179
23.5123
23.7026
17.7298
8.01313
-2.74437
-12.4761
-20.1165
-25.3748
-28.2699
-28.8706
-27.304
-24.0235
-20.0986
-17.3121
-17.6495
-22.4659
-31.7408
-43.7272
-55.3108
-62.98
-63.9922
-57.3309
-44.0971
-27.2373
-10.6434
2.11151
9.0053
9.96688
6.69945
1.97656
-1.55785
-2.45633
-0.785849
2.28887
5.37029
7.68651
9.75739
13.3079
20.463
32.7338
50.0368
70.4112
90.5891
106.956
116.696
118.849
114.614
106.795
98.6958
92.9675
90.6864
90.9759
91.5191
89.5013
82.9343
71.7187
58.0292
45.8508
39.5728
42.3519
54.7848
74.2773
95.7795
113.594
123.393
123.649
115.943
104.019
91.994
82.7228
77.0474
74.1209
72.545
71.6317
71.897
74.7112
81.3056
91.745
104.568
117.159
126.909
132.406
133.879
132.977
131.992
132.757
135.874
140.45
144.559
146.015
143.07
135.026
122.463
107.242
92.1747
80.4421
74.8051
76.7823
86.0743
100.444
116.068
128.472
133.883
130.443
118.871
102.242
85.1091
71.9195
65.6233
66.9737
74.5933
85.6778
97.1676
106.642
112.736
115.062
113.791
109.336
102.365
93.9252
85.5927
79.2901
76.7527
78.9442
85.5282
94.7705
103.93
109.941
110.112
102.547
86.462
62.3899
32.5595
1.16219
-25.9259
-42.1661
-42.0941
-23.2754
12.2604
58.2482
105.938
146.739
174.63
187.542
186.919
176.169
158.924
137.991
115.14
91.7293
69.2754
49.4047
33.3626
21.3819
12.6835
5.99413
0.418556
-3.82454
-5.33552
-2.28058
6.26263
19.4389
34.5342
47.7512
55.4534
55.4058
47.5437
33.9
17.8089
2.80968
-8.23892
-13.7745
-13.7581
-9.4848
-3.1492
2.70047
5.89094
5.28969
1.14821
-5.07448
-11.2278
-15.3679
-16.6869
-15.9274
-15.0789
-16.4867
-21.6894
-30.5789
-41.2221
-50.6116
-55.8389
-55.4781
-50.2625
-42.8492
-36.7348
-34.7485
-37.839
-44.707
-52.4103
-57.744
-58.6698
-55.0806
-48.7165
-42.1219
-37.3499
-35.0405
-34.3418
-33.5838
-31.2154
-26.6623
-20.5585
-14.3368
-9.32991
-6.07213
-4.0072
-1.76354
2.09432
8.46233
17.2553
27.4518
37.4977
46.0247
52.1993
55.9107
57.6848
58.3372
58.5201
58.4632
57.8607
55.9678
51.9324
45.1185
35.4905
23.7717
11.4032
0.289805
-7.6719
-11.1101
-9.54706
-3.44552
5.82995
16.3333
26.0586
33.3999
37.431
38.0366
35.8315
31.8506
27.2881
23.1147
19.8909
17.7105
16.2627
14.971
13.3691
11.2905
8.97277
6.90559
5.65471
5.63704
6.8152
8.83108
11.1215
13.151
14.5212
14.9484
14.2285
12.1845
8.78938
4.26872
-0.71486
-5.14991
-7.9398
-8.27007
-6.04171
-2.06941
2.23029
5.36012
6.34476
5.06631
2.20995
-1.18535
-4.31136
-7.03601
-9.80474
-13.1869
-17.3741
-21.8446
-25.5094
-27.2681
-26.58
-23.8462
-20.1202
-16.5666
-13.8873
-12.0415
-10.4073
-8.29448
-5.49303
-2.42438
-0.0429776
0.728909
-0.520303
-3.48689
-7.26541
-10.6879
-12.7135
-12.7358
-10.8897
-7.97749
-5.38738
-4.86272
-8.17236
-16.4991
-29.9019
-46.8842
-64.3817
-78.2129
-83.9975
-78.3299
-59.8495
-29.8901
7.55778
46.6207
80.8452
104.693
114.798
110.654
94.4915
70.4255
43.1723
16.7941
-5.98604
-23.966
-37.0927
-45.8105
-50.5112
-51.3941
-48.6732
-42.9174
-35.1684
-26.8129
-19.3878
-14.2107
-11.9838
-12.7647
-16.1168
-21.3277
-27.5403
-33.9931
-40.1781
-45.9622
-51.506
-57.0448
-62.5881
-67.6409
-71.1874
-72.0697
-69.5596
-63.814
-56.042
-48.265
-42.6527
-40.7062
-42.877
-48.6408
-56.874
-66.2717
-75.6667
-84.1438
-90.9224
-95.404
-97.3322
-97.1394
-95.9598
-95.3557
-96.6827
-100.496
-106.197
-112.092
-116.111
-116.721
-113.507
-107.287
-99.7225
-92.6445
-87.4008
-84.4619
-83.4392
-83.3308
-82.8173
-80.6122
-75.7395
-67.7319
-56.7901
-43.8186
-30.2804
-17.8033
-7.65369
-0.47212
3.73912
5.53272
5.71081
5.0121
3.9605
2.98375
2.46236
2.70109
3.75337
5.33108
6.90931
7.89304
7.95071
7.16291
5.99647
5.06397
4.86098
5.43652
6.39715
7.213
7.47584
6.99173
5.81984
4.04036
1.5037
-2.21449
-7.53476
-14.4722
-22.2579
-29.2112
-33.118
-31.9496
-24.7448
-12.1071
3.78375
19.7901
32.7878
40.5107
42.0581
37.9027
29.4962
18.7127
7.32073
-3.15019
-11.581
-17.1066
-19.0086
-16.8176
-10.6543
-1.34539
9.48853
19.5217
26.2611
27.8067
23.5404
14.4457
2.92163
-7.91566
-15.3183
-17.7646
-15.291
-9.31353
-1.88758
5.03345
10.1902
13.2031
14.3104
13.9009
12.177
9.12547
4.75494
-0.638609
-6.37858
-11.4105
-14.5602
-15.1309
-13.2073
-9.66596
-6.05486
-4.2069
-5.5295
-10.441
-18.0834
-26.304
-32.2558
-33.3146
-28.1253
-17.2086
-2.98125
10.9625
21.1589
25.517
23.9834
18.4392
11.6732
6.07757
2.53302
0.13013
-3.4804
-11.0363
-24.3531
-43.2493
-65.1414
-85.3974
-98.3503
-98.8337
-83.8066
-53.5026
-11.8078
34.3003
76.3536
106.549
119.666
114.398
93.5084
62.9176
29.9567
1.3587
-18.3279
-27.5059
-27.469
-21.5248
-13.7454
-7.76845
-5.95667
-9.02313
-16.1506
-25.4861
-34.7506
-41.9414
-45.9359
-46.7345
-45.2474
-42.8177
-40.669
-39.4247
-38.9409
-38.6093
-37.849
-36.5243
-35.1465
-34.6173
-35.8046
-39.0401
-43.7538
-48.8228
-53.0376
-55.6813
-56.97
-57.985
-60.0493
-64.0372
-69.8651
-76.4028
-81.8688
-84.5989
-83.7538
-79.7872
-74.3604
-69.8913
-68.807
-72.7808
-82.1183
-95.4371
-109.927
-122.234
-129.446
-129.953
-124.038
-113.737
-102.165
-92.5155
-87.0899
-86.773
-90.8851
-97.4571
-103.979
-108.044
-107.854
-102.557
-92.2289
-77.7093
-60.3605
-41.8531
-24.0139
-8.5084
3.27302
10.5422
13.3133
12.4346
9.23263
5.10357
1.11288
-2.2969
-5.3703
-8.61532
-12.3845
-16.5133
-20.1892
-22.2984
-21.9733
-19.0112
-13.9708
-8.03474
-2.56756
1.46317
3.77847
4.71974
4.88214
4.64383
4.00084
2.76059
0.727614
-1.9417
-4.55544
-6.18322
-6.07021
-4.16283
-1.14615
1.82524
3.69052
4.04958
3.42807
3.10939
4.43837
8.09998
13.8143
20.3553
25.9914
29.1429
28.9432
25.4988
19.7062
12.8409
6.12252
0.453981
-3.74548
-6.54101
-8.3095
-9.56998
-10.8254
-12.3493
-13.9945
-15.3144
-15.7148
-14.6619
-12.0361
-8.3192
-4.54325
-1.89356
-1.2386
-2.71972
-5.61945
-8.71105
-10.7836
-11.2486
-10.3707
-9.04039
-8.28493
-8.57189
-9.61367
-10.5103
-10.0843
-7.41012
-2.25395
4.75208
12.2096
18.1036
20.1098
16.0731
4.63784
-14.0284
-37.7924
-62.5309
-82.8378
-93.342
-90.1901
-72.2883
-41.7877
-3.55716
36.0023
70.5217
95.1404
107.31
106.838
95.4408
76.0166
51.8297
26.0355
1.38568
-19.8372
-35.9711
-46.0062
-49.4911
-46.5917
-38.2439
-26.2263
-12.9516
-1.05417
7.14755
10.271
8.20566
2.06358
-6.47289
-15.8663
-25.2749
-34.5342
-43.6549
-52.1463
-58.7503
-61.7144
-59.682
-52.5133
-41.6984
-30.1223
-21.1192
-17.2623
-19.5273
-27.1314
-37.9549
-49.3808
-59.1888
-66.1628
-70.2565
-72.2729
-73.3737
-74.5637
-76.3502
-78.5553
-80.4572
-81.219
-80.3506
-78.0075
-75.0005
-72.5283
-71.6877
-73.014
-76.2823
-80.6309
-84.9447
-88.342
-90.4247
-91.2194
-90.9157
-89.6377
-87.3203
-83.8165
-79.089
-73.3416
-66.9152
-59.9959
-52.336
-43.3189
-32.2954
-19.1417
-4.58407
9.81804
22.0749
30.3513
33.5748
31.6898
25.4569
16.0848
4.93185
-6.54945
-16.7498
-23.9572
-26.5818
-23.5955
-14.9788
-1.94034
13.1879
27.4593
38.0791
43.0211
41.4114
33.6273
21.1076
6.07783
-8.85432
-21.0758
-28.3989
-29.4185
-23.9631
-13.2072
0.528887
14.4902
26.2687
34.3608
38.4489
39.1473
37.3939
33.7982
28.4344
21.1082
12.0111
2.22834
-6.30134
-11.347
-11.2272
-5.58309
4.31389
15.9371
26.4002
33.4167
35.9425
34.3019
29.7411
23.7041
17.251
10.7689
4.15406
-2.74876
-9.64699
-15.7322
-19.8737
-21.0161
-18.5435
-12.6334
-4.30288
4.89787
13.1843
18.8808
20.8647
18.8879
13.6721
6.80087
0.378304
-3.69408
-4.35063
-1.66047
3.27271
8.85361
13.5052
16.1697
16.3814
14.0792
9.32028
2.03596
-7.92309
-20.4147
-34.5781
-48.5043
-59.3056
-63.7199
-58.9341
-43.4627
-17.9409
14.6936
49.5604
80.7627
102.612
110.92
104.079
83.6307
54.0525
21.666
-7.0216
-26.9176
-35.7566
-34.383
-26.0102
-14.8693
-4.75974
1.86615
4.17447
2.5674
-2.07195
-8.84842
-17.0079
-25.8406
-34.3761
-41.3469
-45.4875
-46.0976
-43.4958
-39.0443
-34.747
-32.6028
-33.6886
-37.7279
-43.231
-48.2276
-51.0662
-51.0168
-48.492
-44.6922
-41.1287
-39.1966
-39.8558
-43.567
-50.1233
-58.647
-67.759
-75.8272
-81.4005
-83.79
-83.3835
-81.5944
-80.3118
-81.0816
-84.5159
-90.0633
-96.1487
-100.872
-102.863
-101.733
-98.0933
-93.2382
-88.548
-84.9867
-83.014
-82.6645
-83.6047
-85.1424
-86.1548
-85.0573
-80.1316
-70.1797
-55.2224
-36.8605
-17.9154
-1.52965
9.92832
15.7862
17.2975
16.9336
17.3047
20.0065
24.9387
30.3862
33.7624
32.7068
26.0369
14.4031
0.204775
-13.1787
-22.3431
-24.8492
-20.0914
-9.568
3.57317
15.4892
22.8712
24.1018
19.7657
12.186
4.40484
-1.20067
-3.85289
-4.56357
-5.42358
-8.46331
-14.5464
-22.8686
-31.1849
-36.7593
-37.4666
-32.4777
-22.501
-9.44226
4.33086
16.6485
25.9917
31.5246
33.0781
31.0889
26.4997
20.7548
15.5664
12.3984
11.9133
13.625
16.0169
17.0648
15.1427
9.88038
2.39481
-5.07948
-10.0954
-10.9414
-7.36398
-0.598511
7.16448
13.6777
17.3434
17.5904
14.7943
9.97544
4.47887
-0.328844
-3.2782
-3.54335
-0.860751
4.24038
10.4587
16.0634
19.5258
20.1197
18.3819
15.884
14.5209
15.6764
19.5243
24.7794
29.0173
29.4004
23.5376
10.1754
-10.3857
-36.0846
-63.1611
-86.4998
-100.475
-100.103
-82.4845
-48.0523
-1.06122
50.9444
98.8181
134.135
151.36
149.06
129.985
99.8986
65.6384
33.3456
7.23932
-10.7081
-20.5034
-23.474
-21.5595
-16.838
-11.2013
-6.11449
-2.488
-0.668225
-0.45133
-1.38716
-3.02982
-5.13914
-7.75741
-10.9836
-14.6985
-18.4382
-21.4557
-23.1241
-23.2587
-22.263
-21.0016
-20.3584
-20.7915
-22.1365
-23.8915
-25.6037
-27.2973
-29.5855
-33.3122
-38.9508
-46.1202
-53.5813
-59.7218
-63.2008
-63.5805
-61.5778
-58.7305
-56.7633
-57.0256
-60.0034
-65.268
-71.7509
-78.1598
-83.3668
-86.6092
-87.6486
-86.8141
-84.7498
-82.1641
-79.5316
-76.906
-73.9252
-70.1337
-65.3562
-59.9545
-54.83
-50.9475
-48.7022
-47.4452
-45.5087
-40.7447
-31.4573
-17.2763
0.444318
19.0708
35.5148
47.2491
53.0818
53.3528
49.5114
43.4683
36.9645
31.1057
26.3164
22.6389
20.0413
18.6026
18.5035
19.9725
23.0324
27.266
31.8178
35.6464
37.8504
38.0176
36.4112
33.9127
31.7414
30.9393
31.9395
34.4316
37.4176
39.629
40.0354
38.2181
34.5242
29.8428
25.2277
21.536
19.1655
18.0917
18.135
19.226
21.5036
25.1809
30.2976
36.5376
43.188
49.253
53.7439
55.9937
55.6748
52.7072
47.128
39.1345
29.2292
18.4802
8.62355
1.83153
0.0434024
4.21307
13.7899
26.6573
39.7608
50.1041
55.6532
55.9028
51.7888
44.9803
37.0765
29.0342
21.0513
12.893
4.4118
-3.98319
-11.2589
-16.0209
-16.9451
-13.3487
-5.57323
5.06131
16.5644
26.7901
34.0811
37.7473
38.2275
36.7574
34.8032
33.4263
32.9509
33.0662
33.2099
32.9519
32.1823
30.8281
28.4104
23.8264
15.6409
2.84277
-14.2742
-33.5025
-50.8966
-61.7853
-62.1491
-49.9256
-25.7372
7.14643
43.542
77.5801
103.967
119.026
121.343
111.87
93.6176
70.9468
48.517
30.1864
18.1135
12.3979
11.283
11.962
11.694
8.77495
2.95527
-4.68164
-12.3563
-18.3746
-21.7005
-22.2159
-20.539
-17.7034
-14.8294
-12.8288
-12.2115
-13.0578
-15.0756
-17.7613
-20.6113
-23.3489
-25.9941
-28.7258
-31.6454
-34.5453
-36.8759
-37.833
-36.7873
-33.6759
-29.1908
-24.6668
-21.6668
-21.4067
-24.3714
-30.1473
-37.7147
-45.9844
-54.1608
-61.8371
-68.8256
-74.8479
-79.3963
-81.8548
-81.9859
-80.3566
-78.3095
-77.5398
-79.3854
-84.0276
-90.1596
-95.3616
-97.0576
-93.5168
-84.6677
-72.2533
-59.3057
-49.0666
-43.755
-43.8111
-47.6847
-52.3074
-54.0849
-50.0528
-38.8184
-21.0717
0.654589
22.714
41.3428
53.7279
58.6268
56.4929
49.0969
38.8266
28.0438
18.6762
12.0629
9.03716
9.97646
14.7006
22.4152
31.7349
40.8824
48.0156
51.7879
51.6677
47.9076
41.4036
33.3328
24.9238
17.2641
11.2981
7.92805
7.94085
11.7435
19.0431
28.6552
38.6025
46.5848
50.6924
50.0185
44.9998
37.2491
28.9768
22.1485
17.8811
16.2509
16.5121
17.6338
18.8622
20.0636
21.6951
24.5457
29.1908
35.575
42.8783
49.6739
54.2282
55.0821
51.4756
43.6721
32.9039
21.0833
10.4756
3.12832
0.407473
2.7167
9.38618
18.7826
28.6955
36.9363
41.7984
42.3718
38.6861
31.5782
22.3442
12.3914
3.09032
-4.37123
-8.97701
-10.0159
-7.24536
-1.12429
7.31913
16.5779
25.0121
31.2572
34.5175
34.5799
31.5739
25.8602
17.9392
8.5975
-0.814975
-8.32911
-11.7058
-9.21626
-0.555761
12.5226
26.325
36.1477
37.8054
29.1675
10.954
-13.2748
-38.0814
-57.599
-67.0296
-63.5881
-46.9028
-18.8824
16.587
54.2493
88.2662
113.384
125.881
124.382
110.216
86.9669
59.3886
32.0697
8.48431
-9.56327
-21.7159
-28.4663
-30.6701
-29.2485
-25.1949
-19.6804
-14.0439
-9.54781
-7.01982
-6.67108
-8.06957
-10.4453
-13.0127
-15.3041
-17.2694
-19.2546
-21.7416
-25.0705
-29.2747
-34.0406
-38.7381
-42.443
-44.1193
-42.915
-38.5054
-31.4194
-23.1663
-16.0185
-12.2973
-13.557
-19.9609
-30.1165
-41.5837
-51.8696
-59.2991
-63.5316
-65.4464
-66.4639
-67.8045
-70.0241
-73.0594
-76.5498
-80.1342
-83.5841
-86.818
-89.6287
-91.5916
-92.1754
-91.0894
-88.591
-85.49
-82.8469
-81.357
-80.8641
-80.2074
-77.6776
-71.8179
-62.201
-49.7077
-36.1605
-23.5914
-13.3602
-5.71743
0.040055
5.00274
10.001
15.2213
20.0828
23.7111
25.4178
24.9328
22.5191
18.8574
14.8568
11.4183
9.25095
8.84357
10.3802
13.6833
18.1947
23.058
27.2462
29.7523
29.96
27.8478
24.1007
19.9057
16.5673
15.0567
15.6114
17.6308
19.9072
21.1557
20.5308
17.9817
14.3354
10.9669
9.22104
9.74395
12.3137
15.9078
19.0929
20.6691
20.1445
17.9295
15.0812
12.8046
11.966
12.759
14.6977
16.9775
18.9
20.1684
20.948
21.7503
23.0159
24.8552
26.8753
28.2987
28.3024
26.4254
22.8707
18.5071
14.5669
12.106
11.5466
12.4866
13.8836
14.5007
13.5374
11.0257
7.80556
5.16537
4.26201
5.63634
9.01192
13.4693
17.7936
20.9184
22.2185
21.5309
18.9929
14.8834
9.51796
3.26942
-3.33418
-9.50579
-14.2868
-16.7727
-16.4186
-13.1541
-7.40337
0.0666304
8.39118
16.7747
24.4646
30.6415
34.4351
35.064
32.1242
25.9612
17.8112
9.59014
3.32215
0.305367
0.509054
2.45997
3.73139
1.71142
-5.2158
-16.8045
-30.8269
-43.6113
-51.1
-50.0743
-39.1504
-19.1929
7.00406
35.5133
62.2822
83.967
98.4323
104.844
103.493
95.5212
82.5875
66.5689
49.3478
32.6404
17.7676
5.49488
-4.02572
-11.1352
-16.4066
-20.3992
-23.4693
-25.7251
-27.1032
-27.6046
-27.4894
-27.1716
-27.0165
-27.1964
-27.5644
-27.7893
-27.6073
-27.0478
-26.4756
-26.3638
-26.9096
-27.7844
-28.2323
-27.4188
-24.8351
-20.7343
-16.1952
-12.8188
-12.2251
-15.5075
-22.8545
-33.4738
-45.7929
-57.8436
-67.6702
-73.7381
-75.3126
-72.7208
-67.3799
-61.4746
-57.4508
-57.2672
-61.7036
-70.0043
-80.1444
-89.5493
-96.0624
-98.6937
-97.8163
-94.8214
-91.3237
-88.3295
-85.8749
-83.1469
-78.9727
-72.4832
-63.6008
-53.0074
-41.78
-30.9943
-21.4013
-13.356
-7.06924
-2.82977
-1.01151
-1.79378
-4.68876
-8.27229
-10.3816
-8.67943
-1.56478
10.9564
27.0418
43.4366
56.4629
63.2649
62.8308
56.225
46.078
35.5488
27.2013
22.1238
19.8375
18.8463
17.5046
14.781
10.6668
6.02243
2.10589
-0.00812211
0.180764
2.55555
6.64299
11.8996
17.8939
24.3032
30.8587
37.1939
42.7448
46.7843
48.6025
47.6442
43.6317
36.6581
27.2932
16.6695
6.50875
-1.14319
-4.49062
-2.6217
4.07676
13.8789
24.2068
32.5445
37.3487
38.4202
36.7251
33.8014
30.956
28.8017
27.2281
25.7021
23.7159
21.1472
18.3229
15.7815
14.0868
13.6603
14.7011
17.115
20.5408
24.3501
27.735
29.8827
30.1632
28.464
25.3505
21.9677
19.6202
19.3111
21.2718
24.7994
28.4398
30.4781
29.632
25.5322
18.9238
11.3885
4.74681
0.395712
-1.21185
-0.714517
0.64456
1.6668
1.85457
1.72658
2.47511
5.26579
10.4269
17.0546
23.1384
26.3557
25.0516
18.9739
9.488
-0.957962
-9.65746
-14.3768
-13.8287
-7.8939
2.61409
16.2359
31.0621
44.8782
55.3695
60.5816
59.2693
51.2015
37.1921
18.8021
-2.06976
-23.6777
-44.4324
-62.4134
-74.9716
-78.7132
-70.1527
-47.142
-10.3837
35.6904
83.3015
123.138
146.991
150.328
133.758
102.799
65.929
31.8207
6.78801
-6.7957
-10.6527
-9.1877
-7.21211
-8.00503
-12.2405
-18.1359
-22.5866
-22.9872
-18.6123
-10.8894
-2.59185
3.53429
5.91169
4.73944
1.53965
-2.10767
-5.75524
-10.4319
-17.934
-29.4468
-44.236
-59.2553
-70.0391
-72.5602
-65.1327
-49.3644
-29.7882
-12.278
-1.90186
-1.24306
-9.90205
-25.1173
-43.0181
-59.9449
-73.3979
-82.2556
-86.4157
-86.2722
-82.5539
-76.2851
-68.7874
-61.6987
-56.8836
-56.0307
-60.0612
-68.7049
-80.3933
-92.5089
-102.114
-106.826
-105.615
-99.1217
-89.4628
-79.4002
-71.2945
-66.3075
-64.069
-63.0152
-61.2328
-57.2705
-50.6333
-41.8321
-31.9195
-22.0448
-12.9748
-4.9376
2.20917
8.7119
14.772
20.287
24.8263
27.7734
28.5558
26.937
23.208
18.1762
13.0712
9.29981
8.03524
9.8611
14.6247
21.3913
28.7346
35.1401
39.3264
40.5663
38.8768
34.8665
29.5145
23.8229
18.5804
14.1705
10.5943
7.54832
4.64201
1.81417
-0.504666
-1.57771
-0.550836
3.18834
9.54513
17.6132
25.9835
33.0501
37.5887
39.0694
37.5283
33.3851
27.1239
19.2168
10.2204
1.00522
-7.12231
-12.4779
-13.5156
-9.6377
-1.49795
9.1504
19.7059
27.5499
30.8379
29.0206
22.7139
13.4318
3.04562
-6.64562
-14.1611
-18.5436
-19.4285
-16.8717
-11.4488
-4.17551
3.71144
10.9914
16.5664
19.856
20.8718
20.0826
18.262
16.2224
14.7337
14.2223
14.7093
15.734
16.3797
15.4589
11.9408
5.58608
-2.50511
-10.062
-14.1569
-12.195
-3.05402
12.2045
30.544
47.8975
60.475
65.983
64.1617
56.715
46.5055
36.3281
28.1316
22.6312
19.2832
16.6598
12.947
6.48877
-3.96224
-18.9286
-37.9796
-59.5483
-81.2085
-99.912
-112.499
-116.288
-109.398
-91.0637
-61.7856
-23.3632
21.0213
66.9389
109.132
142.304
162.212
166.7
156.246
133.947
104.755
74.2268
47.2309
26.8202
13.7523
6.77886
3.28983
0.283609
-4.66931
-12.6059
-22.8201
-33.2511
-41.2453
-44.4077
-41.3292
-32.061
-18.0817
-1.92177
13.3105
24.5044
28.9786
25.0882
12.7916
-5.91556
-27.1353
-45.7309
-56.6815
-56.7934
-45.6989
-26.1214
-2.93393
18.3473
33.2685
39.5425
37.0915
27.3775
12.4764
-5.57776
-24.9805
-43.9484
-60.4045
-72.2673
-77.7787
-76.0842
-67.5036
-53.4464
-36.0468
-17.8185
-1.53188
9.67139
12.701
5.55263
-11.3859
-34.5041
-57.2332
-71.8788
-72.611
-58.2686
-33.4305
-6.72775
12.7013
19.3511
13.8613
2.9251
-3.89458
1.29849
21.2367
52.4086
86.8016
115.388
131.819
134.228
124.631
107.188
86.0944
64.4139
44.2287
27.6427
17.2028
15.3942
23.4197
40.3309
62.8262
86.0305
105.117
116.84
120.164
115.795
105.357
90.6737
73.6916
56.6868
42.4814
34.1254
33.8467
41.8666
55.9207
71.9299
85.3527
92.8159
93.256
87.8982
79.0593
68.773
58.0847
47.2595
36.6475
27.5699
22.33
23.3144
31.6206
46.0746
63.2285
78.4753
87.86
89.5862
84.4266
74.9445
64.0559
53.7701
44.7275
36.73
29.7292
24.5903
23.0696
26.889
36.523
50.4688
65.467
77.5674
83.6907
82.8371
76.2173
66.4949
56.5134
48.1814
42.0128
37.508
33.9288
30.8943
28.7087
27.9838
29.0679
31.6621
34.8509
37.4412
38.5315
37.8595
35.8257
33.2486
30.9327
29.4307
29.0078
29.7613
31.8592
35.5173
40.8909
47.8389
55.7928
63.9104
71.2386
76.9761
80.5505
81.4902
79.362
73.6081
63.6623
49.3159
31.1075
10.4907
-10.2475
-28.2863
-40.7781
-45.3242
-40.2441
-24.8567
0.247584
33.1635
70.5434
107.744
139.487
160.683
167.606
158.968
136.412
104.291
68.5642
35.2391
8.92212
-8.20365
-16.4274
-17.8757
-15.347
-11.3272
-7.34789
-3.98725
-1.34751
0.409755
0.846183
-0.676937
-4.59103
-10.7383
-18.1615
-25.2586
-30.3191
-32.2299
-30.967
-27.6526
-24.186
-22.5714
-24.1743
-29.1915
-36.6168
-44.5181
-50.6866
-53.4515
-52.1637
-47.2666
-40.0706
-32.4764
-26.4797
-23.7872
-25.6783
-32.8686
-45.3386
-62.0798
-81.0444
-99.2781
-113.562
-121.228
-121.066
-113.743
-101.757
-88.5824
-77.4589
-70.3392
-67.5533
-68.1231
-70.6616
-74.24
-78.7795
-84.7862
-92.5354
-101.199
-108.624
-111.873
-108.378
-97.0387
-78.6876
-55.9662
-32.4368
-11.2731
5.6741
17.9889
26.3101
31.5322
34.1343
33.8818
30.2591
23.2084
13.7242
3.97832
-3.22174
-5.47698
-1.81987
6.82972
18.027
28.6449
35.9914
38.6966
36.9197
31.9187
25.2824
18.3989
12.2537
7.42868
4.35517
3.40665
4.74836
8.04967
12.2772
15.8969
17.4559
16.2471
12.7084
8.42486
5.53493
5.84787
10.0506
17.4302
26.0951
33.5495
37.5165
36.7043
31.159
22.2865
12.4869
4.44521
0.270957
0.844307
5.53941
12.406
18.9561
23.1181
24.0774
22.4942
20.0155
18.4638
18.9123
21.1307
23.7467
25.0486
23.8903
20.3562
15.6975
11.6759
9.61166
9.70335
10.9381
11.7039
10.6711
7.5008
2.99829
-1.38893
-4.38255
-5.53905
-5.38753
-4.99197
-5.26675
-6.39147
-7.69584
-8.03632
-6.45957
-2.72083
2.57375
8.31364
13.4193
17.2593
19.8035
21.3919
22.388
22.9992
23.2089
22.8596
21.9467
20.5864
18.9364
17.029
14.712
11.7124
7.75432
2.63492
-3.74801
-11.4152
-20.2313
-29.7145
-38.7626
-45.4673
-47.3138
-41.7706
-27.1243
-3.36276
27.3149
60.5669
90.765
112.261
120.81
114.646
94.9664
65.6556
32.329
1.09266
-22.8433
-36.3333
-38.8351
-32.3018
-20.5197
-7.96026
1.42628
5.17264
2.80887
-4.19983
-13.1496
-21.0523
-25.6372
-26.0043
-22.9672
-18.8411
-16.4126
-17.8628
-23.7987
-32.8178
-41.9503
-47.9417
-48.7208
-44.4185
-37.478
-31.5551
-29.8313
-33.4198
-40.8829
-48.8966
-53.6955
-52.8676
-46.5116
-37.2229
-29.0153
-25.7613
-29.7696
-41.1448
-57.878
-76.6987
-94.0769
-107.181
-114.459
-115.834
-112.51
-106.589
-100.451
-95.9758
-94.0598
-94.4127
-95.8114
-96.6158
-95.5206
-92.0361
-86.5926
-80.2307
-74.1076
-69.0514
-65.4062
-63.0566
-61.5201
-59.9304
-57.1999
-52.1577
-43.896
-32.1326
-17.6178
-2.06089
12.3257
23.5656
30.5444
33.3131
33.0256
31.4076
29.9744
29.5135
29.951
30.4787
29.8635
27.1022
21.907
14.9078
7.62603
2.04958
0.0224584
2.57961
9.42467
18.8797
28.4421
35.5116
38.2535
36.0578
29.7399
21.2471
13.0568
7.43317
5.83607
8.56372
14.7759
22.6592
29.9418
34.4606
34.7212
30.4869
22.8789
13.9741
6.23406
1.74509
1.44979
4.7681
9.99901
15.0626
18.3679
19.4299
18.9617
18.4513
19.2979
22.0186
25.8841
29.2293
30.2165
27.7224
21.9683
14.6214
8.1466
4.72096
5.34608
9.45714
15.1961
20.2507
22.7304
21.7861
17.514
10.7459
2.71181
-5.34634
-12.2775
-17.0485
-18.9951
-18.1617
-15.5242
-12.7157
-11.4206
-12.591
-15.857
-19.5038
-21.1392
-18.8361
-12.0817
-2.17358
8.22789
16.1573
19.4569
17.672
12.1496
5.38222
0.0523634
-1.91574
-5.14537e-05
4.7238
10.0322
13.3019
12.2488
5.50918
-6.84245
-23.4937
-42.3413
-60.8473
-76.3301
-86.2428
-88.3407
-80.8121
-62.7286
-34.8051
0.163306
37.4362
71.1169
95.6144
107.17
104.916
90.9665
69.4527
45.0477
21.6283
1.58284
-14.199
-25.8364
-33.7488
-38.3558
-40.1242
-39.7721
-38.3364
-36.9286
-36.3796
-36.9035
-38.0927
-39.3659
-40.4137
-41.3804
-42.8547
-45.5036
-49.5561
-54.455
-59.0906
-62.2999
-63.2484
-61.6943
-58.0211
-52.9346
-47.1694
-41.4028
-36.2262
-32.2412
-30.0801
-30.3303
-33.3284
-39.0112
-46.9269
-56.3061
-66.2473
-75.898
-84.4928
-91.4532
-96.3854
-99.1444
-99.8432
-98.9049
-97.0051
-94.876
-93.1193
-92.0395
-91.5036
-91.1305
-90.5672
-89.7626
-89.1428
-89.4192
-91.2023
-94.5305
-98.5221
-101.441
-101.313
-96.6994
-87.3084
-74.1512
-59.1697
-44.4891
-31.6984
-21.5003
-13.7513
-7.9243
-3.633
-0.739112
0.725027
0.941095
0.617601
0.943437
3.08178
7.55236
13.8589
20.5386
25.8234
28.4546
28.3126
26.513
24.8603
24.8458
26.8682
29.9722
32.1638
31.3141
26.1128
16.6842
4.61123
-7.4967
-16.7571
-20.9143
-18.9381
-11.2111
0.665819
14.3441
27.3467
37.6454
43.9639
45.8401
43.5558
37.8813
29.7591
20.2034
10.2276
0.867685
-6.8369
-11.9277
-13.647
-11.5912
-5.82702
3.0304
13.8497
25.179
35.4496
43.2411
47.5195
47.7493
44.0308
37.0324
27.8679
17.9369
8.64209
1.12754
-3.91457
-6.37697
-6.71241
-5.6911
-4.14818
-2.75233
-1.74627
-0.924362
0.156629
1.81984
4.13016
6.72757
8.84618
9.65198
8.59488
5.65739
1.39336
-3.17114
-6.96013
-9.28895
-10.0248
-9.57265
-8.4625
-6.94392
-4.71142
-0.925733
5.24337
13.8169
23.5497
31.8656
35.4025
31.0975
17.4006
-4.935
-32.8196
-61.3868
-85.0634
-98.7799
-98.9288
-84.0792
-55.3365
-16.283
27.4075
68.8733
101.447
120.067
122.466
109.866
86.6608
58.9711
32.8078
12.3715
-1.05681
-9.02913
-14.6905
-21.0471
-29.4125
-38.7675
-46.3347
-49.0433
-45.1043
-35.0522
-21.6468
-8.80934
-0.0417503
2.75642
-0.3147
-7.61527
-16.986
-26.6748
-35.7973
-44.034
-51.0664
-56.1319
-58.0629
-55.8291
-49.2935
-39.6473
-29.1794
-20.5262
-15.7402
-15.5927
-19.4465
-25.8322
-33.1812
-40.3729
-46.9586
-52.862
-58.0858
-62.5715
-66.1818
-68.7309
-70.1499
-70.5494
-70.1507
-69.2088
-68.0338
-67.1962
-67.4206
-69.3706
-73.2678
-78.5046
-83.6721
-86.8902
-86.4374
-81.5073
-72.6525
-61.5776
-50.5603
-41.5039
-35.1189
-30.7172
-26.6185
-20.9143
-12.3184
-0.745698
12.6102
25.696
36.3331
42.7683
44.0564
40.3104
32.8253
23.9171
16.4318
12.9985
15.194
22.7542
33.2656
42.9026
47.7581
45.5599
36.8176
24.8153
14.4907
10.5223
15.2554
27.7231
44.0831
59.1031
68.2608
69.3011
62.7863
51.4777
38.9922
28.3386
21.1086
17.3642
16.2139
16.6065
17.8332
19.6743
22.2435
25.8203
30.4914
35.9315
41.4563
46.2761
49.6137
50.9102
50.2111
48.0856
45.5788
43.8539
43.6711
44.878
46.269
45.9303
42.0343
33.7365
21.7888
8.56566
-2.68218
-9.08552
-9.12857
-3.18873
6.58881
17.1459
25.5677
29.922
29.5715
25.0415
17.7286
9.49621
2.45741
-1.33329
-0.257272
6.42051
18.1326
32.8208
47.3473
58.4175
63.5139
61.7891
54.43
44.2255
34.4107
27.4081
24.0924
23.3455
22.3636
17.5246
5.54862
-15.444
-45.0619
-79.9628
-114.053
-139.47
-148.206
-134.263
-95.7167
-35.8915
36.7677
110.471
172.707
213.332
226.887
213.77
179.627
133.646
85.8663
44.7633
15.3486
-1.5863
-8.87911
-11.4804
-14.5824
-21.759
-33.8602
-48.8445
-62.827
-71.7093
-72.8497
-66.1123
-53.9466
-40.3076
-28.8781
-21.5941
-17.8988
-15.4283
-11.4652
-4.27356
6.07733
17.6466
27.5868
33.3051
33.3318
27.4501
16.5128
1.96355
-14.2504
-29.7327
-41.6181
-47.0341
-43.9856
-32.2531
-14.0205
6.33686
23.4757
32.887
32.4401
23.1369
8.39544
-7.49222
-21.2443
-31.8117
-40.4281
-49.439
-60.7568
-74.577
-89.1597
-101.572
-108.886
-109.571
-104.074
-94.5365
-83.5026
-72.7658
-62.6626
-52.139
-39.6522
-24.45
-7.52052
8.4647
20.1538
24.9987
22.6592
15.4537
7.49528
3.06456
5.05827
13.9222
27.7604
43.262
57.2509
67.6884
74.0854
77.1742
78.1489
78.0082
77.3344
76.432
75.4616
74.6548
74.1286
73.5885
72.1057
68.5909
62.4267
53.9907
45.003
38.009
35.377
38.1079
45.3349
54.5305
62.422
66.3094
65.244
60.3402
54.274
50.1281
50.128
54.8554
63.3239
73.6453
83.9492
93.0743
100.65
106.594
110.503
111.448
108.47
101.491
92.2138
83.9625
80.6771
85.1181
97.1679
113.148
126.845
132.241
126.364
110.999
92.3216
78.3636
75.3366
84.5388
101.59
118.384
126.805
122.391
106.257
84.4411
64.9636
54.3621
55.115
65.2347
79.7663
93.2898
102.125
105.028
102.947
97.969
92.2364
87.2964
83.8706
81.8996
80.4057
77.383
70.1114
56.1138
34.5627
7.49645
-19.9449
-40.4992
-46.9771
-34.7307
-3.39839
42.8823
96.6485
149.288
193.119
222.846
236.079
233.046
216.07
188.93
156.242
122.713
92.2796
67.369
48.5562
35.0448
25.5547
19.263
16.292
17.3514
22.8299
31.8587
42.2158
51.0087
55.8665
56.0453
52.7109
48.2226
44.8668
43.7453
44.3302
44.9487
43.8236
39.9936
33.637
25.7944
17.7118
10.3203
4.11092
-0.615932
-3.4388
-3.62409
-0.411903
6.46606
16.3725
27.7204
38.2688
45.6537
47.9374
43.9723
33.4821
17.1564
-3.34444
-25.375
-45.6052
-60.6167
-67.7991
-66.313
-57.5099
-44.6406
-31.836
-22.6985
-19.1541
-20.9868
-26.2845
-32.6182
-38.2059
-42.4487
-45.7278
-48.556
-50.6201
-50.4674
-45.9557
-35.3134
-18.3108
3.16792
25.4803
44.4961
57.1335
62.4863
61.9268
58.3195
54.7007
53.0051
53.465
54.8937
55.6518
54.6119
51.7012
47.8912
44.6321
43.1224
43.7888
46.0694
48.7048
50.3429
49.9578
47.2126
42.5686
37.1396
32.3113
29.3159
28.7471
30.2386
32.6045
34.1635
33.3577
29.4106
22.7804
15.0627
8.41842
4.79282
5.17993
9.27163
15.6048
22.2062
27.3329
30.0679
30.4549
29.3662
28.0315
27.4733
28.1486
29.8183
31.6247
32.4062
31.125
27.2208
20.884
13.0654
5.26446
-0.91904
-4.32593
-4.69589
-2.76388
0.11933
2.57182
3.83394
4.12015
4.46184
5.96296
9.09031
13.3096
17.1456
18.9309
17.7353
13.9948
9.36488
6.06001
5.8154
9.15728
15.1578
21.8586
27.1552
29.5492
28.4911
24.2354
17.4729
8.78135
-1.62616
-13.6979
-27.2057
-41.2952
-54.163
-63.1784
-65.3088
-57.909
-39.5985
-11.0036
24.8522
62.8504
96.6982
120.405
129.832
123.735
104.104
75.5628
44.1189
15.51
-6.09815
-18.9143
-23.5972
-22.6769
-19.5834
-17.6541
-19.19
-24.8654
-33.5442
-42.6503
-49.1595
-50.6338
-46.1479
-36.7959
-25.3623
-15.272
-9.34265
-8.82996
-13.1405
-20.2249
-27.666
-33.7764
-38.0658
-41.198
-44.4264
-48.7724
-54.4731
-60.8923
-66.8664
-71.2407
-73.4261
-73.5556
-72.3509
-70.7543
-69.5107
-68.8512
-68.4478
-67.6187
-65.767
-62.7607
-59.0979
-55.9638
-54.9036
-57.3503
-64.104
-75.0125
-88.9305
-103.917
-117.677
-127.945
-132.86
-131.337
-123.211
-109.245
-91.0819
-71.0681
-51.7853
-35.4573
-23.462
-16.1529
-12.9536
-12.7604
-14.4433
-17.2254
-20.7071
-24.4869
-27.7445
-29.1348
-27.0645
-20.388
-9.10027
5.40098
20.5794
33.658
42.6941
47.1815
47.8336
45.856
41.9762
35.9021
26.6193
13.3009
-3.52209
-21.3448
-36.062
-43.3275
-40.3828
-27.2879
-7.11364
14.9975
33.6563
45.0611
48.0011
43.8084
35.3496
25.5875
16.5646
9.0365
2.85862
-2.22145
-6.0915
-8.17799
-7.79588
-4.79217
0.13506
5.51931
9.68056
11.4554
10.7504
8.6463
7.0392
7.90376
12.4739
20.6616
30.9139
40.5245
46.4632
46.3744
39.5272
27.2009
12.409
-0.985804
-9.63933
-11.888
-8.18956
-0.802585
7.16485
12.9857
15.2858
14.2985
11.4326
8.38719
6.37933
5.7479
6.06433
6.63278
7.01043
7.31702
8.11613
9.88225
12.5707
15.475
17.3422
16.8839
13.4186
7.30858
0.0344057
-6.10676
-8.71959
-6.14972
1.79814
13.5522
26.025
35.4558
38.5507
33.5469
20.739
2.46973
-17.5146
-35.0742
-46.576
-49.4575
-42.5186
-26.0096
-1.62103
27.63
57.6186
83.699
101.694
108.91
104.802
91.1694
71.6911
50.7352
32.0532
17.8794
8.56435
2.8655
-1.26248
-5.66302
-11.2504
-17.753
-24.017
-28.607
-30.4464
-29.3693
-26.1517
-22.1628
-18.7677
-16.7339
-16.0498
-16.0469
-15.8687
-15.0597
-13.8532
-13.0735
-13.6244
-16.0148
-20.0685
-25.0362
-30.0947
-34.9335
-39.8834
-45.5781
-52.3924
-59.8461
-66.4215
-70.1216
-69.3991
-64.0524
-55.5119
-46.5538
-40.4049
-39.6312
-45.1854
-56.0997
-69.8776
-83.3904
-93.9241
-100.074
-102.055
-101.417
-100.301
-100.432
-102.399
-105.35
-107.42
-106.509
-101.255
-91.5899
-78.8012
-65.0537
-52.5652
-42.8383
-36.1766
-31.8118
-28.3538
-24.4598
-19.2633
-12.5063
-4.47383
4.26536
12.9445
20.5702
25.9477
27.914
25.7157
19.5544
10.8649
2.18959
-3.54281
-4.03772
1.48292
11.9192
24.7034
36.7131
45.3619
49.402
49.1193
45.8612
41.3129
36.8313
33.0108
29.7169
26.4195
22.6136
18.0197
12.6312
6.71617
0.877033
-4.00103
-6.80729
-6.35269
-1.8345
6.74708
18.227
30.4102
40.6508
46.6129
46.9762
41.8605
32.6638
21.5447
10.7143
1.92582
-3.66175
-5.44027
-3.22564
2.79368
11.9302
22.7893
33.3858
41.5842
45.6648
44.8784
39.8174
32.2056
24.2905
18.0688
14.6738
14.0903
15.3168
16.8292
17.1972
15.6359
12.3573
8.51622
5.89363
6.17151
10.1413
17.2228
25.5208
32.3645
35.2865
32.9684
25.8019
15.712
5.30097
-3.24699
-8.93624
-12.0559
-13.4935
-13.7961
-12.5488
-8.47716
-0.401173
11.586
25.597
38.3866
46.5693
48.2376
43.8712
36.1351
28.5441
23.6832
22.1915
22.6882
22.7188
20.1784
14.2419
5.62883
-4.11239
-13.5059
-21.6681
-28.2154
-32.7034
-33.9732
-30.1525
-19.1804
0.135832
27.2308
59.3626
91.972
119.632
137.295
141.426
130.799
106.893
73.9048
38.1342
6.59554
-14.7386
-22.5516
-17.05
-1.88573
16.9634
33.2419
42.2366
41.6742
31.8321
14.9582
-5.48018
-25.6804
-42.0286
-51.5892
-52.607
-45.0296
-30.8381
-13.8563
1.27365
10.4458
11.3294
4.10031
-8.70454
-23.1791
-35.4204
-42.8044
-44.7148
-42.3109
-37.7578
-33.2708
-30.4487
-29.9481
-31.5792
-34.7808
-39.154
-44.6942
-51.4708
-59.2758
-67.3931
-74.6422
-79.6747
-81.4891
-80.0439
-76.4768
-72.7277
-70.8103
-72.1527
-77.3366
-86.1146
-97.6173
-110.58
-123.426
-134.071
-139.972
-138.601
-128.29
-109.24
-84.0066
-56.7599
-32.0505
-13.3768
-2.03047
2.95199
3.69544
2.14498
-0.740791
-4.99307
-10.7296
-17.1666
-22.2388
-23.2549
-18.1113
-6.53115
9.39157
25.8429
38.8099
45.5721
45.5562
40.2233
32.0732
23.4091
15.5575
8.80604
2.96132
-2.00082
-5.55149
-6.87219
-5.55263
-2.05004
2.38127
6.08843
7.84277
7.59121
6.40315
5.90403
7.52632
11.6687
17.5302
23.4338
27.5624
28.6348
26.3698
21.5991
15.8321
10.7459
7.68347
7.27573
9.23625
12.5763
15.9514
18.1528
18.4659
16.9982
14.6174
12.6337
12.2089
13.8942
17.4059
21.7241
25.5393
27.8587
28.3516
27.3332
25.4444
23.2442
21.0822
19.0589
17.1219
15.3916
14.1237
13.5691
13.6888
14.0663
14.0495
12.9395
10.3985
6.70149
2.71473
-0.390446
-1.54013
-0.110115
3.9013
9.88078
16.8198
23.5646
29.0134
32.2848
32.9384
31.018
27.0829
22.0722
17.058
12.9132
9.99462
8.14522
6.92519
6.05949
5.60535
6.02248
7.96882
11.9049
17.732
24.6767
31.5908
37.2859
40.9567
42.4293
42.0913
40.608
38.5874
36.3287
33.6426
29.7299
23.4233
13.4744
-1.04394
-20.2645
-42.9295
-66.0817
-85.3444
-95.6786
-92.6325
-73.816
-39.9412
4.85234
53.6238
98.2996
131.602
148.786
148.537
132.972
106.635
75.0191
43.1179
14.566
-8.69124
-26.0692
-37.7642
-44.2812
-46.0794
-43.5992
-37.4439
-28.6681
-18.9016
-9.95691
-3.44392
-0.306546
-0.510238
-3.12661
-6.84545
-10.6415
-14.2087
-17.9441
-22.5889
-28.5525
-35.4208
-41.9376
-46.3947
-47.4169
-44.6704
-39.1131
-32.6029
-27.1541
-24.1577
-23.8605
-25.4286
-27.5291
-29.1117
-29.9475
-30.7683
-32.9519
-37.842
-45.922
-56.4332
-67.4733
-76.5786
-81.6503
-81.8107
-77.8594
-72.0309
-67.1864
-65.6248
-68.0916
-73.4778
-79.4295
-83.4351
-83.9939
-81.305
-77.0423
-73.3444
-71.5518
-71.3764
-70.9763
-67.9209
-60.4567
-48.4438
-33.4564
-18.123
-4.96837
4.54455
10.2805
13.0031
13.7356
13.2285
11.828
9.72765
7.30524
5.32806
4.73552
6.20046
9.81076
14.9233
20.3325
24.6596
26.7253
25.8227
21.8659
15.4143
7.60232
0.020866
-5.5828
-7.66516
-5.40441
1.05595
10.4972
20.971
30.297
36.5913
38.6953
36.367
30.2037
21.4664
11.8883
3.36467
-2.39114
-4.14532
-1.53561
4.72023
13.001
21.1803
27.2309
29.8846
29.004
25.5853
21.408
18.3327
17.5869
19.2784
22.3502
24.9934
25.4118
22.6898
17.3608
11.3294
7.288
7.64336
13.3797
23.2686
34.1325
41.9529
43.3625
36.947
23.9588
7.95504
-6.59488
-15.9176
-18.1403
-13.7958
-5.18165
4.82415
13.865
20.7977
25.6031
28.8107
30.8172
31.4786
30.2637
26.8469
21.6542
15.9451
11.3688
9.21469
9.83346
12.4432
15.5683
17.9817
19.3729
20.3723
22.149
25.8463
31.8381
39.4216
47.0491
52.7576
54.5925
50.882
40.4386
22.9319
-0.587336
-27.2003
-52.0818
-69.2634
-73.0982
-60.2683
-31.2726
9.0678
52.6697
90.5463
115.588
124.633
119.127
104.098
85.8869
69.9642
59.4157
54.483
53.315
53.2083
51.6863
47.1497
39.0608
27.7054
14.0351
-0.353707
-13.4019
-22.8098
-26.5833
-23.8118
-15.2059
-3.23066
8.47104
16.3632
18.2782
14.1682
6.0109
-3.07458
-10.3167
-14.4531
-16.0966
-17.168
-19.7713
-24.9121
-31.9667
-38.9529
-43.3251
-43.1103
-37.8996
-29.0735
-19.2648
-11.4792
-8.04828
-9.83869
-16.158
-25.3085
-35.4598
-45.4635
-55.0153
-64.2942
-73.3925
-81.7246
-88.0485
-91.0554
-90.0909
-85.8
-80.0699
-75.1568
-72.6493
-72.7143
-74.013
-74.3504
-71.8133
-65.6783
-56.609
-46.3414
-36.7239
-28.9494
-23.2635
-18.8651
-14.4556
-9.01596
-2.21638
5.49779
12.9348
18.4068
20.2325
17.4248
10.3232
0.878606
-7.61586
-11.5099
-8.0603
3.36284
20.6608
39.614
55.3053
63.8912
63.8821
56.3957
44.3783
31.2375
19.4192
9.62743
1.12668
-7.25989
-15.9836
-24.0909
-29.5698
-30.2466
-24.7482
-13.5594
0.731607
14.2959
23.6013
26.7299
24.1908
18.8566
14.8648
15.8885
23.3819
35.8973
49.4113
58.8163
59.8531
50.8899
33.6258
12.5601
-6.54538
-18.6676
-21.1711
-14.5195
-1.82389
12.4763
24.3272
31.3731
33.3374
31.6937
28.4235
24.6992
20.4298
14.6162
6.27198
-4.33806
-15.1782
-22.8876
-24.1211
-16.9668
-1.94122
18.0329
38.605
55.4833
65.7963
68.7821
65.6692
58.9656
51.6199
46.1934
44.346
46.66
52.6714
61.0583
70.0598
77.9156
83.393
85.9527
85.588
82.4177
76.5774
68.0489
56.8948
43.6793
29.7008
16.5487
5.56027
-2.5706
-7.88925
-10.7916
-11.1962
-8.09125
-0.040868
13.9277
33.2486
55.3186
76.041
91.3429
98.8688
99.0985
95.0813
91.0598
90.5009
94.606
101.983
109.423
113.38
111.397
102.876
88.8387
71.262
52.3275
34.115
18.5165
7.18944
1.27257
0.84398
4.47035
9.30789
11.8119
8.97697
-0.0690071
-13.2665
-26.1897
-33.4784
-30.881
-17.1312
5.28568
30.8971
53.2031
67.0655
70.4378
64.7901
54.119
42.9137
34.2747
28.8405
25.1789
21.2718
16.1721
10.8195
7.68171
9.30517
16.5928
27.667
38.2444
43.3441
39.5605
26.6901
8.01993
-10.9698
-24.8982
-30.586
-28.1578
-20.6578
-12.3947
-7.00924
-6.17907
-9.33803
-14.3163
-18.4825
-19.7782
-17.2305
-10.8844
-1.38844
10.4419
23.807
37.85
51.4993
63.4689
72.3289
76.7694
76.0105
70.2302
60.658
49.4472
39.3171
32.887
31.9512
37.0168
47.1704
60.3297
73.8647
85.4241
93.5447
97.765
98.4962
96.5176
92.468
86.6565
79.1706
70.2642
60.6661
51.6758
44.9122
41.8147
43.1452
48.6226
56.8849
65.8411
73.259
77.2985
77.0326
72.6517
65.45
57.5238
51.1665
48.278
49.8409
55.5605
63.9978
72.9293
79.9916
83.486
82.9354
79.2073
74.0253
69.3393
66.5586
66.0302
67.0008
67.9508
67.3396
64.2212
58.6224
51.4126
44.0338
37.9792
34.2649
33.1841
34.284
36.5985
38.9789
40.4987
40.6904
39.6718
38.0651
36.6749
36.1286
36.6871
38.2376
40.4306
42.8083
45.049
46.9782
48.3067
48.5138
46.9172
42.9645
36.6678
28.9616
21.6675
16.9554
16.5048
20.7007
28.188
36.0745
40.8387
39.4655
30.4655
14.4543
-5.83619
-26.2619
-42.2549
-49.8773
-46.5802
-31.7177
-6.74865
24.8912
58.3049
87.9941
109.006
117.957
113.867
98.4655
75.6418
50.276
26.9997
9.13199
-2.01118
-7.07836
-8.12061
-7.76621
-8.46116
-11.8869
-18.5227
-27.5573
-37.1342
-44.8978
-48.6968
-47.2199
-40.4674
-29.8497
-17.9124
-7.6658
-1.79057
-1.86788
-8.01723
-18.865
-31.9647
-44.3949
-53.5933
-58.0367
-57.6169
-53.6134
-48.2103
-43.7514
-41.9452
-43.2669
-46.9046
-51.29
-54.9301
-57.0995
-58.213
-59.5247
-62.3649
-67.2903
-73.6428
-79.7822
-83.8216
-84.613
-82.287
-78.2437
-74.5675
-73.0943
-74.6516
-78.8101
-84.2032
-89.2534
-92.772
-94.3639
-94.3179
-93.2083
-91.4141
-88.8388
-84.9125
-78.8183
-69.8803
-57.9533
-43.5726
-27.9739
-12.9073
-0.21903
8.66032
13.0738
13.4416
11.2428
8.60558
7.64241
9.69749
14.8018
21.4983
27.3226
29.6921
26.9368
19.0862
8.03207
-3.03457
-10.7219
-12.6885
-8.45847
0.38828
10.9358
19.9859
25.1812
25.6319
21.926
15.6058
8.3805
1.49582
-4.43493
-9.23697
-12.8194
-14.8734
-14.8833
-12.4318
-7.53042
-0.783639
6.67147
13.4315
18.386
20.9783
21.1976
19.3471
15.7717
10.6811
4.2196
-3.31365
-11.2385
-18.3256
-23.0922
-24.3133
-21.4935
-15.0255
-6.09427
3.75242
13.1414
21.2195
27.6745
32.4957
35.6594
36.8744
35.5513
31.1395
23.4457
12.9084
0.655389
-11.6667
-22.2609
-29.6205
-32.8291
-31.6241
-26.4604
-18.4515
-9.05921
0.258123
8.37566
14.7024
19.1661
21.9099
22.9087
21.6295
17.18
8.86284
-2.97362
-16.4031
-28.0963
-34.2699
-32.1634
-21.4503
-4.81879
12.6085
24.8196
26.9093
16.8132
-3.95511
-30.7018
-56.8937
-75.9272
-82.7729
-75.0824
-53.5621
-21.7036
15.0182
50.2842
78.2223
94.6421
97.8421
88.8583
71.049
49.054
27.5003
9.79076
-2.57667
-9.9326
-13.7979
-16.0662
-18.2859
-21.2713
-25.1857
-29.8361
-35.0049
-40.5041
-46.0165
-50.97
-54.4549
-55.3944
-52.9045
-46.8407
-38.0586
-28.3212
-19.8876
-14.7264
-13.8952
-17.2437
-23.6549
-31.5944
-39.7581
-47.5171
-54.8168
-61.7693
-68.2346
-73.6293
-76.986
-77.3078
-74.0687
-67.7024
-59.8039
-52.9048
-49.9461
-53.3927
-64.2502
-81.41
-101.51
-119.75
-131.359
-133.317
-125.541
-110.991
-94.6182
-81.4247
-74.4603
-73.7516
-76.603
-79.2483
-79.1068
-76.4276
-74.1514
-76.2017
-85.0092
-99.3743
-114.216
-122.485
-118.319
-99.7315
-69.8487
-35.8588
-5.92487
14.2794
23.6027
25.2117
24.584
26.4503
32.6158
41.5288
49.4259
52.6493
49.5274
40.8675
29.1443
16.9221
5.85258
-3.47685
-10.7538
-15.1096
-14.889
-8.57543
3.98835
20.9127
38.3317
51.6392
57.3587
54.4465
44.5645
31.1732
18.2107
8.6753
3.88831
3.72384
7.14936
12.6642
18.5381
23.102
25.0818
24.1181
21.059
17.7781
16.3601
17.8178
21.2139
23.7642
22.0192
13.9537
0.337114
-15.1103
-27.1207
-31.151
-25.3288
-11.1531
7.26327
25.041
38.5051
46.2158
48.5999
47.2646
44.2247
41.2194
39.5673
39.8842
41.6696
42.5469
38.3905
24.403
-2.64206
-41.8625
-87.1082
-127.932
-152.863
-153.723
-129.073
-84.8637
-32.3363
15.9257
50.5113
67.6122
69.1247
60.5625
48.3447
37.2399
29.5877
25.7961
25.4637
28.1179
32.7845
37.148
37.344
28.2679
5.23963
-33.6526
-85.818
-143.908
-196.986
-233.281
-243.281
-222.1
-170.513
-94.7092
-4.96526
86.3392
167.069
227.219
260.683
266.022
246.314
208.422
161.41
114.447
74.6791
45.8034
27.2016
14.7857
2.88551
-13.2416
-35.1275
-60.2613
-82.8281
-95.7048
-93.9058
-76.6524
-48.2434
-16.6917
8.95141
21.9519
19.8278
4.85474
-17.2494
-39.8892
-57.7566
-67.8685
-69.357
-62.5491
-48.4792
-28.6298
-5.79199
15.0597
27.4112
25.2641
5.64101
-29.3919
-72.4265
-112.897
-140.843
-150.542
-142.263
-121.551
-96.5011
-74.1145
-57.894
-47.5736
-40.8136
-35.6901
-32.4444
-33.7292
-42.9367
-61.6043
-87.558
-114.783
-135.298
-141.871
-130.742
-103.19
-65.0197
-24.3475
11.3353
37.2847
52.1579
57.6334
56.8368
52.5046
45.9709
37.3282
26.3737
13.7541
1.50647
-7.32049
-9.8613
-4.75986
7.02708
22.3917
37.334
48.3781
53.6357
53.308
49.0713
43.1585
37.4986
33.1586
30.3153
28.7432
28.3406
29.2111
31.4534
34.9325
39.0677
42.8146
44.9824
44.8097
42.4205
39.056
36.8083
37.9714
44.1927
55.7606
71.3454
88.3077
103.415
113.869
118.164
116.172
108.849
97.5603
83.5688
67.8248
51.3234
35.58
22.8098
15.4265
14.9765
21.1731
31.6266
42.4921
49.8603
51.2624
46.6371
38.061
28.4934
20.2552
14.1812
9.62773
5.44133
1.06943
-2.93911
-5.02988
-3.53929
2.23309
11.5109
22.213
31.7096
37.7849
39.3841
36.843
31.6366
25.7682
21.0912
18.7247
18.8356
20.7223
23.1208
24.6636
24.186
21.0257
15.0762
6.52564
-4.4314
-17.6065
-32.4948
-47.9113
-61.5076
-69.6786
-68.3002
-54.1419
-26.4814
11.9421
55.1722
95.4403
125.227
139.432
136.605
118.828
90.6251
57.5875
25.0478
-2.74951
-22.9965
-34.3425
-36.9387
-32.3638
-23.3043
-13.0021
-4.52109
0.0432686
0.125246
-3.37541
-8.73508
-14.1374
-18.4952
-21.781
-24.8792
-28.9234
-34.6112
-41.7763
-49.3785
-55.9137
-59.8755
-60.3413
-57.2388
-51.3592
-44.0088
-36.6675
-30.6756
-27.009
-26.1261
-27.9572
-32.0756
-37.8749
-44.7963
-52.5633
-61.2078
-70.8881
-81.5515
-92.5732
-102.568
-109.586
-111.749
-108.055
-99.0258
-86.8494
-74.806
-66.301
-63.7252
-67.6383
-76.6554
-88.1185
-99.1193
-107.525
-112.467
-114.235
-113.692
-111.521
-107.694
-101.466
-91.7659
-77.8147
-59.7197
-38.7786
-17.3041
1.96853
16.5875
25.0702
27.2169
23.9869
16.9962
7.92972
-1.89893
-11.631
-20.6833
-28.3556
-33.5829
-35.1561
-32.3023
-25.1764
-14.9845
-3.78199
6.12247
12.9474
15.9881
15.6632
13.1332
9.73209
6.57946
4.37201
3.30711
3.1423
3.21817
2.49009
-0.332378
-6.31873
-15.6668
-27.1394
-38.0915
-45.0942
-45.2222
-37.3011
-22.4829
-4.01645
13.8294
27.1892
33.7649
33.1385
26.3997
15.4225
2.23019
-11.2732
-23.2267
-31.6589
-34.6928
-31.0616
-20.8691
-6.13895
9.4615
21.6501
26.9751
24.1573
14.5721
1.6555
-10.5707
-19.223
-23.6004
-25.1165
-26.1947
-28.7438
-32.9348
-37.0257
-38.1326
-33.6735
-22.8041
-7.09613
9.9235
24.0143
31.7578
31.8114
25.3571
15.4413
5.68527
-1.02209
-3.47263
-2.36604
0.181777
1.56377
-0.498347
-7.19618
-18.4241
-32.8929
-48.3796
-62.1905
-71.7047
-74.8177
-70.2868
-57.9446
-38.7288
-14.5338
12.043
37.9882
60.1957
75.9001
83.1651
81.345
71.3828
55.7062
37.658
20.6576
7.37228
-0.854742
-4.31305
-4.54575
-3.59124
-3.34034
-5.0887
-9.37055
-16.106
-24.8245
-34.7955
-45.0419
-54.2353
-60.7409
-62.9548
-59.8117
-51.2112
-38.3611
-23.6788
-10.4107
-1.91645
-0.830898
-8.31926
-23.6098
-43.9442
-65.0483
-82.1948
-91.4899
-91.1158
-81.9013
-66.9492
-50.5058
-36.6178
-28.0345
-25.7111
-29.1511
-37.113
-48.277
-61.4367
-75.3811
-88.6108
-99.453
-106.419
-108.849
-107.396
-103.797
-100.125
-97.7375
-96.6509
-95.5401
-92.5049
-86.3021
-77.2086
-67.1618
-58.975
-55.0938
-56.5196
-62.274
-69.7182
-75.5678
-77.0027
-72.4174
-61.704
-46.1072
-27.5254
-7.945
10.9054
27.7754
41.7848
52.1443
58.0949
59.009
54.5698
45.2459
32.6036
19.1307
7.66624
0.55626
-1.01352
2.57056
9.69497
18.3485
26.9563
34.8967
42.4204
49.8866
56.8319
61.5846
61.7515
55.2148
41.4034
22.221
1.94441
-14.0959
-21.4292
-17.9429
-4.69207
14.5078
34.5453
50.5939
59.6262
61.1693
56.9648
49.8823
42.7721
37.3449
33.6466
30.4925
26.4254
20.6494
13.6754
7.16011
3.07032
2.70566
6.02551
11.6616
17.5279
21.8588
24.0296
24.7561
25.4384
27.2281
30.299
33.6987
35.7261
34.7302
29.9395
21.7411
11.5323
1.07387
-8.4763
-16.6652
-23.7076
-30.3985
-37.7127
-46.2993
-56.008
-65.5076
-72.0651
-72.0854
-62.2443
-40.8308
-9.05078
28.4955
64.7745
