-14391.7
-14391.7
-14391.7
-14391.7
-14391.7
-14391.9
-14392.3
-14391
-14387.3
-14381.2
-14375.2
-14373.6
-14380.5
-14398.6
-14424.9
-14449.6
-14456.9
-14427.8
-14347.4
-14208.3
-14013.8
-13776.8
-13515.4
-13248.3
-12989.5
-12746
-12517.9
-12300.6
-12089.1
-11879.9
-11671.8
-11465.6
-11262.1
-11062.4
-10866.5
-10674.3
-10486
-10301
-10118.7
-9939.76
-9764.09
-9591.85
-9422.64
-9255.82
-9091.93
-8930.89
-8772.75
-8617.11
-8463.35
-8311.98
-8162.9
-8016.14
-7871.35
-7727.98
-7586.57
-7447.2
-7310.09
-7175.11
-7041.91
-6911.05
-6782.56
-6656.5
-6532.6
-6410.39
-6290.31
-6172.36
-6056.67
-5943.09
-5831.28
-5721.71
-5614.41
-5509.48
-5406.74
-5305.79
-5206.98
-5110.23
-5015.54
-4922.67
-4831.24
-4741.55
-4653.57
-4567.37
-4482.79
-4399.55
-4317.97
-4238.07
-4159.91
-4083.31
-4007.96
-3934.08
-3861.56
-3790.4
-3720.4
-3651.34
-3583.51
-3517.01
-3451.98
-3388.38
-3326.02
-3265.13
-3205.64
-3147.5
-3090.51
-3034.35
-2979.21
-2925.08
-2872.02
-2820
-2768.85
-2718.8
-2669.85
-2621.99
-2575.07
-2528.88
-2483.57
-2439.09
-2395.46
-2352.58
-2310.26
-2268.66
-2227.78
-2187.67
-2148.29
-2109.52
-2071.49
-2034.19
-1997.57
-1961.5
-1925.86
-1890.8
-1856.4
-1822.77
-1789.88
-1757.6
-1726.02
-1695.02
-1664.56
-1634.54
-1604.86
-1575.71
-1547.13
-1519.21
-1491.9
-1465.06
-1438.79
-1413.06
-1387.9
-1363.29
-1339.17
-1315.64
-1292.67
-1270.24
-1248.24
-1226.55
-1205.25
-1184.36
-1163.9
-1143.86
-1124.13
-1104.79
-1085.81
-1067.19
-1048.92
-1030.95
-1013.39
-996.27
-979.598
-963.322
-947.356
-931.745
-916.478
-901.563
-886.96
-872.599
-858.519
-844.69
-831.104
-817.72
-804.501
-791.529
-778.834
-766.445
-754.34
-742.449
-730.794
-719.337
-708.066
-696.947
-685.946
-675.133
-664.532
-654.171
-644.035
-634.075
-624.318
-614.75
-605.364
-596.132
-587.007
-578.032
-569.204
-560.538
-552.02
-543.624
-535.399
-527.353
-519.503
-511.833
-504.315
-496.98
-489.822
-482.836
-475.987
-469.229
-462.574
-456.016
-449.57
-443.247
-437.049
-431.027
-425.181
-419.477
-413.831
-408.111
-402.226
-396.062
-389.536
-382.572
-375.114
-367.172
-358.748
-349.859
-340.524
-330.76
-320.653
-310.283
-299.745
-289.126
-278.493
-267.934
-257.491
-247.193
-237.042
-227.027
-217.174
-207.502
-198.046
-188.832
-179.888
-171.271
-163.02
-155.159
-147.689
-140.582
-133.824
-127.383
-121.223
-115.313
-109.628
-104.181
-98.9739
-94.0021
-89.2445
-84.654
-80.1965
-75.8368
-71.5585
-67.3642
-63.2782
-59.358
-55.6437
-52.1522
-48.8632
-45.7303
-42.7174
-39.7869
-36.9316
-34.1612
-31.4944
-28.9768
-26.6338
-24.4794
-22.5078
-20.7093
-19.0984
-17.6891
-16.5053
-15.5575
-14.8405
-14.3338
-13.9864
-13.7273
-13.475
-13.1637
-12.7685
-12.2908
-11.7738
-11.267
-10.8182
-10.4711
-10.2379
-10.1082
-10.0521
-10.0307
-10.0192
-9.98638
-9.90513
-9.74583
-9.48676
-9.13267
-8.70669
-8.25115
-7.8149
-7.43784
-7.1511
-6.95427
-6.83171
-6.75736
-6.71115
-6.69452
-6.70874
-6.76106
-6.8445
-6.93844
-7.0315
-7.1143
-7.19312
-7.29208
-7.44323
-7.68499
-8.04164
-8.52236
-9.1142
-9.79714
-10.5464
-11.338
-12.1519
-12.9703
-13.7842
-14.608
-15.4657
-16.3834
-17.3819
-18.4663
-19.6216
-20.8044
-21.9623
-23.0551
-24.0676
-25.0267
-25.9867
-27.0109
-28.1483
-29.4062
-30.7553
-32.1341
-33.4683
-34.705
-35.8192
-36.8291
-37.7806
-38.7338
-39.7395
-40.8303
-42.0169
-43.2781
-44.5798
-45.879
-47.1336
-48.3196
-49.4331
-50.4889
-51.5047
-52.4954
-53.4692
-54.4205
-55.3371
-56.2136
-57.0625
-57.9129
-58.7956
-59.7296
-60.7033
-61.6781
-62.5987
-63.4194
-64.1302
-64.7583
-65.3693
-66.0396
-66.8267
-67.7451
-68.761
-69.8006
-70.7845
-71.648
-72.3625
-72.9365
-73.4125
-73.8535
-74.3218
-74.8751
-75.5625
-76.4108
-77.4219
-78.5675
-79.7798
-80.9599
-81.9929
-82.775
-83.2305
-83.3221
-83.0471
-82.4182
-81.4437
-80.1036
-78.345
-76.0959
-73.274
-69.817
-65.6968
-60.9307
-55.5749
-49.7279
-43.5203
-37.0983
-30.6112
-24.1951
-17.9465
-11.918
-6.11176
-0.489096
5.005
10.4093
15.7398
20.9743
26.0629
30.9477
35.5728
39.9024
43.9196
47.626
51.0348
54.1718
57.0681
59.7602
62.2916
64.694
66.9857
69.161
71.1974
73.0613
74.7239
76.1787
77.4439
78.5614
79.5931
80.5978
81.6209
82.6842
83.7815
84.8813
85.9343
86.8856
87.6882
88.3164
88.7679
89.064
89.2355
89.3024
89.261
89.0811
88.7109
88.1002
87.2302
86.1175
84.8199
83.4238
82.0071
80.6262
79.2988
78.0059
76.7051
75.3491
73.9027
72.3515
70.7068
68.997
67.2653
65.5522
63.8914
62.3038
60.798
59.375
58.0321
56.769
55.5821
54.4663
53.4073
52.3763
51.3407
50.2671
49.1404
47.9619
46.7517
45.5436
44.361
43.2144
42.0893
40.9562
39.7909
38.5786
37.3303
36.0748
34.8445
33.6576
32.5053
31.3513
30.1391
28.8168
27.3521
25.7502
24.0491
22.3078
20.5889
18.9256
17.3172
15.7275
14.1024
12.3925
10.5697
8.64286
6.6466
4.62666
2.61923
0.641144
-1.30556
-3.2251
-5.11226
-6.95306
-8.718
-10.3907
-11.9845
-13.544
-15.1373
-16.8315
-18.6677
-20.6328
-22.6669
-24.6838
-26.6044
-28.3813
-30.0169
-31.5544
-33.0518
-34.5569
-36.0932
-37.6514
-39.203
-40.7184
-42.1816
-43.5975
-44.9855
-46.3686
-47.7665
-49.1814
-50.5982
-51.9877
-53.322
-54.5814
-55.7608
-56.8711
-57.9406
-59.0065
-60.0983
-61.2318
-62.4007
-63.5862
-64.7491
-65.8602
-66.9039
-67.8914
-68.8501
-69.8185
-70.8292
-71.8888
-72.979
-74.0607
-75.0861
-76.0195
-76.8523
-77.6088
-78.3406
-79.1153
-79.9918
-81.0105
-82.1695
-83.4284
-84.718
-85.9575
-87.0731
-88.0215
-88.8041
-89.4662
-90.0819
-90.7283
-91.4515
-92.2401
-93.0156
-93.6355
-93.9313
-93.7459
-92.9728
-91.5698
-89.564
-87.0231
-84.0235
-80.6213
-76.8391
-72.6674
-68.0828
-63.0746
-57.6658
-51.9214
-45.9509
-39.8918
-33.8904
-28.0741
-22.5383
-17.3323
-12.4572
-7.87372
-3.51576
0.689351
4.80296
8.85291
12.8244
16.6671
20.3063
23.6676
26.7064
29.4137
31.8208
33.9857
35.9751
37.8403
39.6077
41.2814
42.8532
44.3117
45.6514
46.8781
48.0086
49.0579
50.0344
50.9376
51.7611
52.4958
53.139
53.6916
54.1605
54.5543
54.8787
55.1345
55.3166
55.4181
55.4206
55.3041
55.0459
54.6186
54.0074
53.2097
52.2423
51.1396
49.9498
48.727
47.5176
46.3488
45.2284
44.1387
43.0442
41.9029
40.6852
39.38
37.999
36.5761
35.155
33.7742
32.4547
31.1964
29.9827
28.7936
27.6083
26.4221
25.2478
24.104
23.0138
21.9922
21.0462
20.1749
19.3659
18.6045
17.8674
17.1313
16.3703
15.566
14.7191
13.843
12.9596
12.0901
11.2401
10.3951
9.52588
8.60344
7.60918
6.54879
5.45223
4.3512
3.27002
2.21296
1.16141
0.0789469
-1.07264
-2.32423
-3.68354
-5.14008
-6.66908
-8.233
-9.79951
-11.3382
-12.8252
-14.252
-15.6208
-16.9433
-18.2339
-19.5186
-20.8267
-22.1905
-23.6464
-25.2216
-26.9223
-28.7284
-30.5872
-32.4229
-34.1574
-35.7379
-37.1475
-38.4176
-39.6084
-40.7899
-42.0112
-43.2866
-44.6014
-45.9211
-47.2112
-48.4561
-49.6647
-50.8539
-52.0422
-53.2394
-54.4364
-55.6139
-56.7572
-57.8603
-58.932
-59.9877
-61.0414
-62.0914
-63.1196
-64.1015
-65.013
-65.853
-66.6511
-67.4621
-68.3471
-69.3514
-70.4813
-71.6958
-72.9132
-74.0377
-74.989
-75.7281
-76.2667
-76.6635
-76.9965
-77.3448
-77.764
-78.2781
-78.8794
-79.5437
-80.2407
-80.9455
-81.6447
-82.3374
-83.037
-83.7711
-84.5731
-85.4692
-86.4655
-87.5353
-88.6086
-89.5741
-90.305
-90.6811
-90.6125
-90.0525
-88.9901
-87.439
-85.4156
-82.9252
-79.9722
-76.5628
-72.7283
-68.5286
-64.0463
-59.3673
-54.5644
-49.6773
-44.7124
-39.6662
-34.5426
-29.3722
-24.2216
-19.1759
-14.3226
-9.72816
-5.42486
-1.41393
2.32175
5.80856
9.06328
12.092
14.8941
17.4647
19.8081
21.935
23.8644
25.6257
27.2436
28.7347
30.1078
31.3633
32.4981
33.5126
34.4146
35.2193
35.9447
36.6057
37.2061
37.7336
38.1659
38.4782
38.6561
38.7008
38.6419
38.5197
38.3807
38.2567
38.1523
38.0374
37.8588
37.5535
37.0619
36.3614
35.4654
34.4298
33.3262
32.2313
31.1998
30.2416
29.3268
28.4004
27.4063
26.3012
25.08
23.7697
22.4243
21.0994
19.8402
18.67
17.5817
16.5545
15.5607
14.5763
13.5946
12.6219
11.6699
10.757
9.89181
9.07395
8.29479
7.53937
6.79182
6.0345
5.25862
4.45614
3.62871
2.78308
1.92916
1.08133
0.251189
-0.559154
-1.35472
-2.14551
-2.95621
-3.80866
-4.72739
-5.73022
-6.8299
-8.0286
-9.31731
-10.6733
-12.0612
-13.4458
-14.7931
-16.0833
-17.3176
-18.5172
-19.7083
-20.9204
-22.1732
-23.4702
-24.8118
-26.1971
-27.6307
-29.1235
-30.6862
-32.3176
-33.9995
-35.7013
-37.3797
-38.9956
-40.5309
-41.9865
-43.3804
-44.7439
-46.1037
-47.4773
-48.8629
-50.2513
-51.6279
-52.9847
-54.3166
-55.6313
-56.9414
-58.2553
-59.578
-60.9064
-62.2277
-63.5247
-64.7793
-65.9775
-67.1151
-68.1999
-69.2441
-70.2623
-71.2735
-72.2874
-73.3083
-74.3332
-75.354
-76.3546
-77.32
-78.2375
-79.1058
-79.937
-80.76
-81.6057
-82.5037
-83.4559
-84.4445
-85.425
-86.3479
-87.1707
-87.8851
-88.5136
-89.1015
-89.7017
-90.3526
-91.066
-91.8299
-92.6159
-93.3981
-94.1653
-94.9204
-95.6761
-96.4454
-97.2351
-98.037
-98.8345
-99.6081
-100.343
-101.026
-101.649
-102.195
-102.634
-102.925
-103.015
-102.847
-102.371
-101.545
-100.343
-98.7356
-96.696
-94.1899
-91.1919
-87.6949
-83.725
-79.349
-74.6684
-69.797
-64.8385
-59.8608
-54.8942
-49.9355
-44.97
-39.9946
-35.03
-30.1255
-25.3443
-20.7495
-16.3881
-12.2888
-8.45965
-4.89748
-1.59559
1.46063
4.28744
6.90894
9.3594
11.6748
13.8833
16.0023
18.0343
19.9648
21.7773
23.455
24.9939
26.3993
27.6812
28.8495
29.9149
30.879
31.7461
32.5287
33.2434
33.9095
34.5382
35.1332
35.6768
36.1438
36.5076
36.7514
36.8796
36.917
36.9026
36.8705
36.8362
36.7854
36.6723
36.4311
35.9989
35.3356
34.4426
33.3581
32.1523
30.8995
29.6582
28.4627
27.3105
26.1859
25.0733
23.9641
22.865
21.7961
20.7743
19.806
18.8814
17.979
17.0784
16.1632
15.2344
14.3114
13.4209
12.5942
11.8527
11.2042
10.6318
10.1006
9.57089
8.99958
8.36011
7.64696
6.87603
6.0732
5.26066
4.44608
3.61963
2.75931
1.84273
0.860599
-0.171748
-1.21905
-2.24166
-3.20807
-4.11041
-4.97457
-5.84767
-6.79151
-7.86145
-9.08865
-10.4782
-11.9999
-13.601
-15.2175
-16.7831
-18.2509
-19.5974
-20.8385
-22.0127
-23.1748
-24.379
-25.6527
-26.9975
-28.3869
-29.7899
-31.1807
-32.556
-33.9355
-35.3507
-36.8308
-38.3846
-39.9904
-41.604
-43.1731
-44.6533
-46.0224
-47.294
-48.5045
-49.7024
-50.9301
-52.2068
-53.5358
-54.8994
-56.2835
-57.6773
-59.0836
-60.5083
-61.9508
-63.3959
-64.8066
-66.139
-67.3543
-68.4306
-69.3783
-70.2309
-71.0325
-71.821
-72.6188
-73.432
-74.2561
-75.0929
-75.955
-76.8579
-77.8179
-78.8313
-79.8664
-80.8724
-81.7942
-82.5859
-83.2363
-83.775
-84.2629
-84.7765
-85.3809
-86.1138
-86.9679
-87.9019
-88.8475
-89.735
-90.5141
-91.1629
-91.6987
-92.1673
-92.6331
-93.1654
-93.8147
-94.5974
-95.4882
-96.4153
-97.2671
-97.9109
-98.2202
-98.0939
-97.4718
-96.3416
-94.7277
-92.6738
-90.228
-87.429
-84.2995
-80.8529
-77.0973
-73.0443
-68.7145
-64.1426
-59.3809
-54.4921
-49.5537
-44.6454
-39.8371
-35.1818
-30.7009
-26.39
-22.2229
-18.1735
-14.2299
-10.4051
-6.73778
-3.27359
-0.0512789
2.91541
5.6415
8.15341
10.4784
12.6198
14.5591
16.2629
17.7033
18.8825
19.8421
20.661
21.4311
22.2321
23.1063
24.0502
25.019
25.9474
26.7771
27.4677
28.0091
28.4159
28.7129
28.9257
29.0774
29.1879
29.277
29.3671
29.4737
29.6008
29.7284
29.8059
29.7651
29.5363
29.0682
28.3535
27.4333
26.3858
25.3095
24.2854
23.3647
22.5538
21.8232
21.1222
20.4002
19.6209
18.7704
17.8533
16.8891
15.9019
14.9195
13.9671
13.0716
12.2518
11.5195
10.8747
10.2996
9.75963
9.21218
8.61931
7.95818
7.22962
6.45576
5.67839
4.93854
4.26952
3.68928
3.19745
2.77993
2.41143
2.05892
1.68359
1.24669
0.713745
0.064935
-0.703888
-1.57017
-2.48997
-3.4122
-4.29141
-5.10361
-5.85497
-6.57838
-7.32117
-8.13507
-9.05542
-10.0934
-11.2382
-12.461
-13.7219
-14.9763
-16.1869
-17.3263
-18.3861
-19.3833
-20.3602
-21.3772
-22.4974
-23.7646
-25.1861
-26.7245
-28.3033
-29.8378
-31.2545
-32.5197
-33.6447
-34.6822
-35.6946
-36.7311
-37.819
-38.956
-40.1234
-41.304
-42.4873
-43.6717
-44.8611
-46.0535
-47.2411
-48.4079
-49.5404
-50.628
-51.6625
-52.6423
-53.5686
-54.4423
-55.2722
-56.0729
-56.8644
-57.6765
-58.5326
-59.4464
-60.4144
-61.4143
-62.4087
-63.3616
-64.2418
-65.0396
-65.7684
-66.4574
-67.1404
-67.8505
-68.6009
-69.3899
-70.2004
-71.0105
-71.8024
-72.5703
-73.321
-74.0706
-74.8309
-75.6058
-76.3888
-77.1627
-77.9098
-78.6194
-79.2851
-79.9034
-80.4593
-80.9119
-81.1973
-81.2213
-80.8814
-80.0866
-78.7753
-76.9328
-74.5906
-71.8128
-68.6742
-65.2393
-61.5426
-57.5923
-53.3908
-48.9507
-44.3254
-39.6063
-34.9046
-30.3249
-25.9272
-21.7145
-17.6393
-13.6338
-9.64947
-5.6919
-1.82121
1.86723
5.27317
8.34013
11.0681
13.5126
15.7542
17.8617
19.867
21.753
23.4704
24.9683
26.2175
27.2272
28.0378
28.7051
29.283
29.8117
30.3127
30.8017
31.2847
31.7603
32.2132
32.6173
32.9271
33.1013
33.1127
32.962
32.6876
32.3376
31.9622
31.5953
31.2374
30.8576
30.4174
29.8823
29.2358
28.4831
27.6505
26.7723
25.8789
24.9905
24.1199
23.2678
22.4332
21.6103
20.7974
19.9998
19.2349
18.5277
17.914
17.4209
17.0565
16.7992
16.6002
16.3903
16.1025
15.6934
15.1553
14.5214
13.847
13.2047
12.6538
12.2299
11.9352
11.738
11.5846
11.4084
11.1471
10.761
10.236
9.58877
8.86331
8.11186
7.38816
6.72541
6.12688
5.56296
4.98346
4.32872
3.5484
2.62382
1.5696
0.424971
-0.754314
-1.91336
-3.02356
-4.07666
-5.08237
-6.0655
-7.04661
-8.04185
-9.0611
-10.1222
-11.2394
-12.434
-13.7172
-15.0802
-16.4909
-17.9011
-19.259
-20.5325
-21.724
-22.871
-24.0348
-25.2697
-26.6045
-28.025
-29.4835
-30.9113
-32.2483
-33.465
-34.5648
-35.5815
-36.5615
-37.538
-38.5245
-39.5186
-40.5049
-41.4708
-42.4195
-43.3663
-44.3353
-45.3442
-46.3975
-47.4767
-48.5512
-49.5852
-50.5553
-51.459
-52.3109
-53.135
-53.9533
-54.7831
-55.625
-56.4743
-57.3221
-58.1622
-58.9917
-59.8089
-60.6083
-61.3826
-62.1221
-62.8102
-63.4318
-63.9719
-64.4062
-64.7058
-64.8324
-64.7427
-64.3859
-63.7091
-62.6609
-61.1924
-59.2551
-56.8069
-53.8218
-50.3024
-46.2838
-41.8438
-37.0979
-32.172
-27.1819
-22.2126
-17.305
-12.4594
-7.65656
-2.88187
1.85605
6.51917
11.0487
15.3859
19.49
23.3499
26.9779
30.3996
33.6367
36.6986
39.5746
42.2484
44.7106
46.9618
49.0213
50.917
52.6764
54.3239
55.8675
57.3043
58.6272
59.8355
60.9304
61.9222
62.8285
63.6688
64.4597
65.2152
65.9404
66.6311
67.2712
67.8293
68.2685
68.5474
68.6358
68.5225
68.2213
67.772
67.2319
66.6652
66.1184
65.6139
65.1435
64.6778
64.1701
63.5852
62.9075
62.1435
61.3077
60.4157
59.4777
58.4942
57.4646
56.4009
55.3296
54.2921
53.3278
52.4559
51.6668
50.9218
50.1708
49.3725
48.5109
47.608
46.7061
45.8543
45.0897
44.4181
43.8227
43.2743
42.7456
42.2181
41.6841
41.1332
40.5471
39.8951
39.1475
38.2908
37.3384
36.3334
35.3428
34.4265
33.6162
32.8951
32.2087
31.4744
30.6183
29.5911
28.389
27.0447
25.6187
24.171
22.7491
21.3773
20.0618
18.7957
17.5669
16.3659
15.1837
14.0088
12.8256
11.6109
10.3409
8.99361
7.55857
6.0403
4.4665
2.88098
1.33146
-0.140591
-1.5144
-2.79766
-4.02253
-5.22973
-6.45355
-7.70515
-8.97414
-10.2364
-11.4679
-12.6576
-13.8122
-14.9503
-16.0939
-17.2541
-18.4324
-19.6209
-20.8084
-21.9842
-23.1398
-24.2669
-25.3593
-26.4086
-27.4134
-28.3768
-29.3155
-30.2509
-31.2056
-32.1942
-33.2217
-34.2819
-35.361
-36.4447
-37.5201
-38.5734
-39.5933
-40.5659
-41.4803
-42.3325
-43.1202
-43.8437
-44.487
-45.007
-45.3288
-45.3467
-44.9409
-44.0096
-42.484
-40.3471
-37.6318
-34.4113
-30.7766
-26.8095
-22.5725
-18.0962
-13.3806
-8.41481
-3.19204
2.26673
7.90238
13.6257
19.3258
24.8972
30.2589
35.3735
40.2428
44.8946
49.3647
53.6738
57.8222
61.7904
65.5541
69.0972
72.4231
75.5488
78.4996
81.2901
83.9222
86.3905
88.6889
90.8231
92.8143
94.699
96.5133
98.2809
100.012
101.701
103.324
104.866
106.312
107.661
108.919
110.095
111.191
112.201
113.114
113.915
114.6
115.173
115.65
116.047
116.363
116.581
116.663
116.564
116.248
115.702
114.939
113.996
112.923
111.752
110.505
109.183
107.785
106.313
104.791
103.263
101.781
100.382
99.082
97.8629
96.6774
95.4695
94.2023
92.8662
91.4968
90.1595
88.9211
87.8319
86.8981
86.0738
85.2814
84.4367
83.4863
82.4266
81.3034
80.191
79.1578
78.239
77.4239
76.6604
75.8777
75.0122
74.0219
72.8939
71.6436
70.3078
68.9381
67.5862
66.2919
65.0713
63.9043
62.7368
61.4977
60.1303
58.6078
56.9588
55.25
53.5605
51.9541
50.4501
49.0106
47.5692
46.0538
44.4132
42.6443
40.7852
38.8995
37.0502
35.2807
33.5995
31.9889
30.4135
28.8367
27.2329
25.6006
23.9504
22.3034
20.6765
19.0727
17.4742
15.8503
14.1684
12.4044
10.5616
8.67645
6.80516
5.01681
3.36939
1.89731
0.594296
-0.579234
-1.68694
-2.79128
-3.93724
-5.13219
-6.34582
-7.52868
-8.63136
-9.63687
-10.5684
-11.4861
-12.4621
-13.5525
-14.7764
-16.1075
-17.4839
-18.8399
-20.1184
-21.2914
-22.3603
-23.3463
-24.2787
-25.1839
-26.0892
-27.0116
-27.9632
-28.9413
-29.921
-30.8474
-31.631
-32.1622
-32.3183
-31.9877
-31.0868
-29.5718
-27.4309
-24.6892
-21.3915
-17.5837
-13.3187
-8.64793
-3.62859
1.67137
7.17304
12.7897
18.4429
24.0687
29.629
35.107
40.4998
45.7992
50.9908
56.0427
60.9151
65.5703
69.9857
74.1584
78.1064
81.857
85.4319
88.8456
92.0966
95.1756
98.0745
100.79
103.325
105.692
107.897
109.939
111.821
113.539
115.101
116.531
117.865
119.143
120.4
121.65
122.884
124.071
125.169
126.149
126.999
127.726
128.348
128.878
129.304
129.586
129.671
129.504
129.054
128.326
127.355
126.208
124.949
123.637
122.308
120.971
119.624
118.249
116.824
115.327
113.731
112.014
110.162
108.177
106.089
103.949
101.826
99.7968
97.9173
96.2207
94.7071
93.3504
92.1074
90.9358
89.8033
88.6906
87.589
86.5013
85.4285
84.3654
83.3028
82.2233
81.1132
79.962
78.7719
77.553
76.3183
75.0761
73.8258
72.5502
71.2306
69.8486
68.3962
66.882
65.3227
63.7432
62.1586
60.5673
58.958
57.3093
55.6033
53.8295
51.9926
50.1068
48.1913
46.2602
44.3179
42.3647
40.3987
38.4231
36.45
34.5046
32.6134
30.8024
29.0847
27.4529
25.8785
24.3104
22.6916
20.9728
19.127
17.1637
15.1259
13.0783
11.0797
9.1715
7.36189
5.63503
3.95721
2.30568
0.671913
-0.92912
-2.47836
-3.96178
-5.38274
-6.75975
-8.12446
-9.50146
-10.8981
-12.3089
-13.7161
-15.1067
-16.4762
-17.8327
-19.184
-20.5296
-21.8549
-23.1322
-24.3353
-25.4514
-26.4882
-27.4748
-28.4469
-29.4311
-30.4376
-31.4587
-32.4747
-33.4668
-34.4297
-35.379
-36.3445
-37.3605
-38.4541
-39.6362
-40.901
-42.2301
-43.5981
-44.988
-46.3803
-47.7515
-49.0682
-50.2788
-51.3157
-52.1049
-52.5746
-52.6703
-52.3493
-51.5825
-50.3413
-48.5939
-46.3043
-43.4397
-39.9804
-35.937
-31.3543
-26.3124
-20.9162
-15.2808
-9.51289
-3.7029
2.08448
7.81224
13.4581
19.0088
24.4533
29.7766
34.9578
39.9664
44.7645
49.3181
53.5916
57.5596
61.21
64.5487
67.5945
70.3775
72.9347
75.3014
77.5056
79.5651
81.491
83.2898
84.9655
86.5282
87.986
89.3503
90.6299
91.8325
92.9595
94.0181
95.0064
95.9174
96.7375
97.4403
97.9932
98.3692
98.5582
98.5726
98.4432
98.2133
97.9165
97.5589
97.1189
96.5478
95.792
94.8123
93.6063
92.2104
90.6817
89.079
87.4412
85.7786
84.0724
82.2993
80.4479
78.5352
76.6012
74.6986
72.874
71.153
69.5418
68.0222
66.5751
65.1905
63.8673
62.6053
61.401
60.2356
59.0779
57.8948
56.6652
55.3907
54.098
52.8337
51.6426
50.5518
49.5643
48.6588
47.795
46.9246
46.0036
44.9957
43.8736
42.6191
41.2302
39.7273
38.1519
36.5626
35.0212
33.5711
32.2191
30.9201
29.5897
28.133
26.4766
24.593
22.517
20.3338
18.147
16.0524
14.1042
12.3067
10.6264
9.00842
7.39733
5.74864
4.03746
2.25152
0.393658
-1.52798
-3.49764
-5.48912
-7.4753
-9.43075
-11.341
-13.2009
-15.0195
-16.8147
-18.6068
-20.4115
-22.2329
-24.064
-25.8897
-27.6826
-29.4159
-31.0687
-32.6394
-34.1485
-35.6378
-37.1596
-38.7565
-40.4436
-42.1949
-43.9497
-45.6243
-47.1494
-48.4918
-49.6687
-50.7427
-51.7933
-52.8867
-54.0491
-55.2629
-56.4829
-57.6628
-58.7842
-59.8591
-60.9322
-62.0515
-63.2472
-64.5141
-65.8194
-67.1119
-68.3464
-69.4989
-70.5745
-71.5955
-72.5946
-73.5948
-74.6093
-75.6408
-76.689
-77.7543
-78.8387
-79.9364
-81.0175
-82.0261
-82.8785
-83.4748
-83.7196
-83.5282
-82.8446
-81.6353
-79.8913
-77.6069
-74.7821
-71.4218
-67.5324
-63.1392
-58.2941
-53.0792
-47.6089
-42.0158
-36.4318
-30.9636
-25.6831
-20.6151
-15.7422
-11.0195
-6.3925
-1.82176
2.70849
7.18334
11.5545
15.7589
19.7304
23.421
26.8071
29.9017
32.7406
35.3756
37.8619
40.2431
42.5455
44.7773
46.9429
49.0395
51.0708
53.0448
54.9659
56.8299
58.6194
60.3065
61.8616
63.2639
64.5137
65.6291
66.6387
67.5745
68.4534
69.2721
70.0162
70.6573
71.1625
71.5048
71.6657
71.6285
71.384
70.9268
70.2572
69.383
68.3241
67.1094
65.7824
64.3892
62.9686
61.5478
60.1323
58.7084
57.2521
55.7398
54.1645
52.5437
50.9129
49.3117
47.7696
46.2905
44.8525
43.422
41.9687
40.4816
38.9773
37.4909
36.0539
34.6801
33.3673
32.0927
30.8322
29.5754
28.3326
27.1249
25.9767
24.8946
23.8575
22.8293
21.7634
20.6198
19.3821
18.063
16.692
15.3019
13.9132
12.5235
11.1083
9.62872
8.05232
6.36708
4.59316
2.78354
1.00585
-0.682647
-2.25196
-3.71383
-5.12135
-6.54942
-8.07182
-9.7354
-11.5501
-13.4877
-15.4975
-17.5197
-19.5028
-21.4166
-23.2528
-25.0222
-26.7459
-28.4526
-30.1663
-31.9051
-33.6754
-35.4728
-37.2859
-39.0947
-40.8814
-42.6372
-44.3614
-46.0611
-47.7478
-49.4243
-51.0829
-52.7054
-54.2718
-55.7678
-57.1961
-58.577
-59.9414
-61.3226
-62.7356
-64.1784
-65.6278
-67.0528
-68.4202
-69.7128
-70.9316
-72.0866
-73.1957
-74.27
-75.3145
-76.3227
-77.2907
-78.2239
-79.1332
-80.0399
-80.9695
-81.9407
-82.9567
-84.0068
-85.0698
-86.1173
-87.1235
-88.0741
-88.9644
-89.801
-90.595
-91.356
-92.0886
-92.7963
-93.4789
-94.1426
-94.8009
-95.474
-96.1862
-96.9588
-97.8046
-98.7223
-99.694
-100.69
-101.671
-102.601
-103.454
-104.226
-104.933
-105.61
-106.301
-107.044
-107.86
-108.738
-109.639
-110.507
-111.279
-111.903
-112.342
-112.575
-112.581
-112.331
-111.772
-110.835
-109.446
-107.541
-105.095
-102.117
-98.6585
-94.7983
-90.6211
-86.2007
-81.5901
-76.8271
-71.9429
-66.9771
-61.9862
-57.0421
-52.2207
-47.5806
-43.1509
-38.9218
-34.855
-30.9064
-27.0415
-23.2533
-19.5675
-16.0331
-12.7015
-9.60772
-6.76035
-4.13794
-1.70555
0.575397
2.72759
4.7513
6.62947
8.34169
9.88016
11.263
12.532
13.7495
14.9809
16.2728
17.6307
19.0248
20.3909
21.6491
22.7335
23.6064
24.2714
24.7673
25.1536
25.4889
25.8112
26.1313
26.426
26.6484
26.7393
26.6464
26.3351
25.7956
25.0502
24.1354
23.097
21.9715
20.7757
19.5041
18.1433
16.6749
15.1004
13.4402
11.7399
10.0569
8.43602
6.90211
5.45188
4.05799
2.68553
1.30948
-0.0850889
-1.49304
-2.90451
-4.31335
-5.7177
-7.11588
-8.4983
-9.84402
-11.1213
-12.2981
-13.3617
-14.3283
-15.2413
-16.1611
-17.1438
-18.2221
-19.3909
-20.6113
-21.8354
-23.0136
-24.1284
-25.196
-26.2613
-27.3761
-28.5842
-29.9015
-31.3079
-32.7589
-34.2017
-35.5962
-36.9284
-38.2215
-39.5149
-40.8541
-42.2702
-43.7608
-45.2936
-46.8258
-48.3194
-49.7597
-51.1576
-52.5436
-53.944
-55.3673
-56.8035
-58.2305
-59.6323
-61.0145
-62.4036
-63.8428
-65.3554
-66.9443
-68.5772
-70.2018
-71.7668
-73.2411
-74.6234
-75.9347
-77.2022
-78.4431
-79.6605
-80.8439
-81.9893
-83.1055
-84.22
-85.3667
-86.5699
-87.8309
-89.1294
-90.4272
-91.6841
-92.876
-93.9937
-95.0434
-96.0371
-96.989
-97.9126
-98.8256
-99.756
-100.73
-101.769
-102.871
-104.009
-105.128
-106.173
-107.097
-107.894
-108.592
-109.251
-109.938
-110.713
-111.604
-112.606
-113.687
-114.797
-115.88
-116.879
-117.751
-118.466
-119.016
-119.422
-119.729
-119.998
-120.3
-120.694
-121.215
-121.871
-122.641
-123.491
-124.376
-125.255
-126.098
-126.882
-127.601
-128.256
-128.864
-129.451
-130.048
-130.686
-131.374
-132.104
-132.846
-133.561
-134.215
-134.797
-135.326
-135.839
-136.383
-136.992
-137.667
-138.379
-139.077
-139.699
-140.189
-140.508
-140.627
-140.523
-140.167
-139.526
-138.563
-137.242
-135.542
-133.462
-131.02
-128.251
-125.203
-121.932
-118.494
-114.939
-111.313
-107.65
-103.974
-100.298
-96.6311
-92.9817
-89.3631
-85.7984
-82.3176
-78.9509
-75.7206
-72.6387
-69.7031
-66.9071
-64.2423
-61.7116
-59.3326
-57.1288
-55.1247
-53.3332
-51.7435
-50.3189
-49.0025
-47.734
-46.4682
-45.1901
-43.9188
-42.7012
-41.5914
-40.6256
-39.811
-39.115
-38.4807
-37.8471
-37.1679
-36.4241
-35.6355
-34.8461
-34.1081
-33.4676
-32.9531
-32.5744
-32.3279
-32.2032
-32.1935
-32.2856
-32.4653
-32.7119
-32.9941
-33.2898
-33.5873
-33.8912
-34.2235
-34.6167
-35.095
-35.6675
-36.3155
-36.9991
-37.6698
-38.2896
-38.84
-39.3426
-39.8389
-40.3825
-41.0135
-41.7361
-42.5128
-43.276
-43.9503
-44.478
-44.8407
-45.0643
-45.2063
-45.3303
-45.4843
-45.6922
-45.9477
-46.234
-46.5466
-46.8857
-47.2677
-47.7026
-48.181
-48.6717
-49.1321
-49.5231
-49.8362
-50.0884
-50.332
-50.6247
-51.0138
-51.515
-52.1164
-52.7791
-53.4544
-54.103
-54.7078
-55.2748
-55.834
-56.4299
-57.1047
-57.8898
-58.79
-59.7871
-60.8399
-61.9025
-62.9346
-63.9093
-64.8251
-65.6975
-66.5529
-67.4226
-68.3254
-69.2631
-70.2194
-71.1613
-72.0469
-72.8425
-73.5341
-74.1362
-74.6878
-75.2425
-75.8507
-76.5395
-77.3066
-78.1214
-78.9416
-79.7347
-80.4839
-81.1956
-81.889
-82.5856
-83.2934
-84.0059
-84.7144
-85.4088
-86.0934
-86.776
-87.4651
-88.1594
-88.8418
-89.4865
-90.0679
-90.5737
-91.0129
-91.4183
-91.8298
-92.2847
-92.8046
-93.3839
-93.9978
-94.6081
-95.1852
-95.7121
-96.1897
-96.6305
-97.0511
-97.4607
-97.8653
-98.27
-98.6889
-99.1513
-99.6941
-100.341
-101.093
-101.91
-102.714
-103.413
-103.923
-104.193
-104.217
-104.025
-103.657
-103.147
-102.498
-101.678
-100.639
-99.3281
-97.7126
-95.7834
-93.5535
-91.0595
-88.3444
-85.4538
-82.4392
-79.355
-76.2489
-73.1646
-70.1295
-67.1509
-64.2271
-61.3538
-58.5343
-55.7893
-53.1534
-50.6707
-48.3739
-46.2806
-44.3834
-42.6535
-41.0455
-39.5125
-38.0134
-36.5224
-35.0334
-33.5558
-32.1135
-30.7411
-29.4752
-28.3486
-27.3854
-26.5879
-25.9374
-25.3904
-24.8864
-24.3667
-23.7931
-23.159
-22.5018
-21.8876
-21.3802
-21.02
-20.7934
-20.632
-20.4401
-20.1364
-19.6951
-19.1657
-18.6598
-18.3116
-18.2196
-18.4072
-18.8168
-19.3361
-19.8456
-20.2677
-20.5889
-20.8567
-21.1488
-21.5294
-22.0279
-22.6286
-23.2908
-23.9662
-24.6319
-25.2889
-25.955
-26.6549
-27.3971
-28.1643
-28.9226
-29.6344
-30.274
-30.8356
-31.3387
-31.8136
-32.2881
-32.775
-33.2656
-33.7351
-34.1575
-34.5179
-34.824
-35.1039
-35.3977
-35.7395
-36.1456
-36.6134
-37.1236
-37.6591
-38.2076
-38.7704
-39.3573
-39.9762
-40.6197
-41.2726
-41.9111
-42.5149
-43.081
-43.6249
-44.1661
-44.7337
-45.3421
-45.9882
-46.6583
-47.3307
-47.9879
-48.6182
-49.2254
-49.8284
-50.454
-51.1387
-51.917
-52.8138
-53.8333
-54.9562
-56.1382
-57.3171
-58.4333
-59.4388
-60.311
-61.0547
-61.699
-62.2861
-62.8635
-63.4747
-64.1536
-64.9151
-65.7572
-66.6601
-67.5871
-68.4927
-69.3416
-70.1137
-70.8191
-71.4962
-72.1969
-72.969
-73.8312
-74.7629
-75.7122
-76.6015
-77.3646
-77.9646
-78.407
-78.7443
-79.0564
-79.4221
-79.9062
-80.5337
-81.2836
-82.1031
-82.9271
-83.6962
-84.3747
-84.9611
-85.484
-85.9818
-86.4948
-87.0529
-87.6682
-88.3315
-89.0207
-89.7039
-90.342
-90.8942
-91.3194
-91.5887
-91.6822
-91.5936
-91.3296
-90.9018
-90.3173
-89.5686
-88.6291
-87.4545
-86.0041
-84.2444
-82.167
-79.8017
-77.1963
-74.4075
-71.4928
-68.4913
-65.4293
-62.3221
-59.1911
-56.0647
-52.977
-49.9707
-47.0818
-44.3332
-41.7339
-39.2777
-36.9533
-34.7514
-32.6653
-30.6973
-28.8591
-27.1564
-25.5856
-24.1366
-22.7867
-21.5105
-20.2845
-19.0978
-17.9483
-16.8449
-15.7944
-14.7949
-13.8347
-12.8956
-11.96
-11.0251
-10.1045
-9.2285
-8.42666
-7.72268
-7.11758
-6.59755
-6.13206
-5.69476
-5.26483
-4.8367
-4.41352
-4.01357
-3.65472
-3.35753
-3.14449
-3.03566
-3.04356
-3.16701
-3.40212
-3.73273
-4.14378
-4.62247
-5.16887
-5.78089
-6.45281
-7.16873
-7.90312
-8.62457
-9.31046
-9.9546
-10.572
-11.1853
-11.8128
-12.4584
-13.1082
-13.7382
-14.3317
-14.889
-15.4372
-16.0113
-16.6374
-17.3194
-18.0258
-18.697
-19.2697
-19.7061
-20.0103
-20.2348
-20.4627
-20.7788
-21.2362
-21.8351
-22.5193
-23.2038
-23.7966
-24.2368
-24.5123
-24.6613
-24.7583
-24.8887
-25.1209
-25.4945
-26.0063
-26.6198
-27.2827
-27.9482
-28.5861
-29.198
-29.8148
-30.4804
-31.2356
-32.0938
-33.0399
-34.0264
-34.9927
-35.8796
-36.6599
-37.3439
-37.9755
-38.6156
-39.3241
-40.132
-41.0409
-42.016
-43.0099
-43.9682
-44.857
-45.6636
-46.3966
-47.0842
-47.7575
-48.4415
-49.1516
-49.8899
-50.6528
-51.4367
-52.2464
-53.0881
-53.9691
-54.8885
-55.8252
-56.7486
-57.6204
-58.4057
-59.0904
-59.6839
-60.2139
-60.7245
-61.2583
-61.845
-62.4927
-63.1984
-63.9343
-64.6716
-65.3814
-66.0458
-66.6564
-67.2273
-67.7844
-68.362
-68.9977
-69.7107
-70.5016
-71.3423
-72.1869
-72.9868
-73.7027
-74.3209
-74.854
-75.3284
-75.7741
-76.2069
-76.6255
-77.0069
-77.3092
-77.4867
-77.4908
-77.27
-76.7716
-75.9386
-74.7198
-73.0798
-71.0173
-68.568
-65.8057
-62.8329
-59.7571
-56.6629
-53.6103
-50.6248
-47.7105
-44.8601
-42.0569
-39.2869
-36.5348
-33.7833
-31.0241
-28.2638
-25.5348
-22.8884
-20.3833
-18.0703
-15.9755
-14.0862
-12.363
-10.7507
-9.20586
-7.70628
-6.252
-4.85958
-3.54464
-2.3051
-1.11893
0.0483578
1.2319
2.45149
3.70042
4.94963
6.16613
7.3177
8.39533
9.41189
10.3954
11.3771
12.3717
13.3723
14.3571
15.2917
16.1556
16.9381
17.6518
18.3137
18.9335
19.4952
19.9671
20.3051
20.4754
20.466
20.3012
20.0303
19.7059
19.3674
19.0327
18.69
18.312
17.8712
17.3559
16.7754
16.1562
15.535
14.9421
14.3944
13.8886
13.4119
12.9479
12.4901
12.0452
11.6299
11.2608
10.9463
10.6703
10.4057
10.1189
9.78425
9.39201
8.96006
8.52182
8.11534
7.76753
7.48753
7.26136
7.05316
6.81831
6.51473
6.11345
5.60495
5.00694
4.35683
3.70224
3.08355
2.52386
2.0123
1.51719
0.992143
0.395323
-0.294736
-1.07795
-1.93637
-2.84072
-3.76612
-4.68848
-5.58786
-6.44331
-7.23873
-7.96726
-8.64895
-9.32293
-10.0489
-10.8912
-11.8857
-13.0332
-14.2818
-15.5521
-16.7565
-17.8333
-18.7635
-19.5812
-20.3477
-21.1331
-21.9893
-22.9343
-23.9552
-25.0249
-26.1142
-27.2013
-28.2824
-29.3504
-30.398
-31.4074
-32.3527
-33.2186
-34.0069
-34.7415
-35.4708
-36.2423
-37.0876
-38.0096
-38.9759
-39.9343
-40.8349
-41.6426
-42.3637
-43.0316
-43.7015
-44.4267
-45.2392
-46.1392
-47.0971
-48.0643
-48.9919
-49.8452
-50.6109
-51.2982
-51.9297
-52.5338
-53.1307
-53.737
-54.3605
-55.0088
-55.6841
-56.3782
-57.0711
-57.7213
-58.2672
-58.6343
-58.7459
-58.5404
-57.9834
-57.068
-55.815
-54.2605
-52.4413
-50.3894
-48.1233
-45.6523
-42.9836
-40.1276
-37.114
-33.9818
-30.7859
-27.5851
-24.4321
-21.3655
-18.406
-15.5564
-12.8094
-10.1527
-7.57227
-5.06463
-2.63364
-0.284924
1.96548
4.09939
6.10215
7.96371
9.68733
11.2887
12.7953
14.2404
15.6494
17.0333
18.3827
19.6737
20.8762
21.9709
22.9552
23.8464
24.6774
25.473
26.2453
26.9845
27.6667
28.2722
28.7937
29.2498
29.6695
30.079
30.486
30.8701
31.1838
31.3807
31.432
31.3319
31.1055
30.7938
30.4295
30.0306
29.5962
29.1187
28.5934
28.0274
27.4418
26.8559
26.2815
25.7139
25.1347
24.52
23.8577
23.1581
22.4468
21.7618
21.1426
20.6123
20.174
19.8061
19.4764
19.1475
18.7936
18.4098
18.0119
17.6311
17.3044
17.0536
16.8717
16.7252
16.5559
16.3027
15.923
15.4081
14.7895
14.1256
13.4811
12.9023
12.397
11.9376
11.4674
10.9269
10.2756
9.50963
8.66569
7.80389
6.98385
6.24378
5.58321
4.96709
4.34112
3.65362
2.87336
2.00121
1.05718
0.0695802
-0.938514
-1.95735
-2.98762
-4.03465
-5.10199
-6.18667
-7.27775
-8.3704
-9.4635
-10.5621
-11.6747
-12.805
-13.9457
-15.0813
-16.1885
-17.2518
-18.26
-19.2155
-20.1292
-21.018
-21.8999
-22.7955
-23.7243
-24.6996
-25.7208
-26.7724
-27.8221
-28.8287
-29.7624
-30.6158
-31.4109
-32.194
-33.0174
-33.915
-34.89
-35.9097
-36.9133
-37.8354
-38.6381
-39.32
-39.9175
-40.4942
-41.1147
-41.8224
-42.6314
-43.5243
-44.4627
-45.3979
-46.2777
-47.0461
-47.6408
-47.9972
-48.0566
-47.7794
-47.1534
-46.1963
-44.9459
-43.4381
-41.6888
-39.6847
-37.3893
-34.7631
-31.7916
-28.5039
-24.972
-21.3026
-17.6057
-13.9695
-10.4463
-7.05269
-3.77965
-0.60697
2.47828
5.48469
8.4106
11.2506
13.9971
16.6406
19.1648
21.5537
23.7933
25.8758
27.8016
29.5833
31.2409
32.7961
34.2644
35.6611
36.9977
38.2827
39.5269
40.7409
41.9293
43.0951
44.2301
45.322
46.3563
47.3233
48.2198
49.0556
49.8521
50.6276
51.3994
52.1693
52.9259
53.638
54.265
54.7556
55.0597
55.136
54.963
54.5473
53.9316
53.1896
52.4159
51.6996
51.1047
50.6431
50.2847
49.953
49.5591
49.0273
48.3176
47.4277
46.393
45.2654
44.1001
42.9462
41.8433
40.8217
39.9032
39.0947
38.3866
37.7525
37.158
36.5738
35.9844
35.397
34.8299
34.3054
33.8332
33.4032
32.9846
32.5375
32.0255
31.4287
30.7484
30.0122
29.2569
28.5212
27.8232
27.1607
26.4993
25.7913
24.9898
24.0681
23.0353
21.933
20.8239
19.7693
18.8126
17.96
17.1815
16.434
15.6618
14.8241
13.8882
12.8352
11.6517
10.3319
8.88135
7.32676
5.71937
4.12015
2.59009
1.16758
-0.147763
-1.38953
-2.60796
-3.84907
-5.13142
-6.43678
-7.72043
-8.9362
-10.0611
-11.1063
-12.1126
-13.1351
-14.2197
-15.377
-16.5884
-17.8094
-18.9993
-20.1364
-21.2213
-22.2781
-23.3324
-24.4
-25.4725
-26.5296
-27.5435
-28.5023
-29.4091
-30.2858
-31.1627
-32.063
-32.9966
-33.9607
-34.9507
-35.9619
-37.0011
-38.0815
-39.2088
-40.3693
-41.5244
-42.6103
-43.5463
-44.2589
-44.7009
-44.8605
-44.7536
-44.4126
-43.8553
-43.072
-42.0176
-40.6296
-38.8497
-36.6518
-34.0583
-31.1335
-27.9717
-24.6675
-21.295
-17.8963
-14.4814
-11.0395
-7.55603
-4.02184
-0.448266
3.1318
6.66968
10.1061
13.3861
16.4728
19.359
22.0612
24.6177
27.069
29.4356
31.7131
33.8718
35.8715
37.6825
39.3057
40.7674
42.1155
43.399
44.6482
45.8711
47.0557
48.1824
49.2419
50.2371
51.185
52.1012
52.9919
53.8472
54.6383
55.3349
55.906
56.3364
56.63
56.8094
56.9072
56.9602
57.0005
57.0385
57.0635
57.0425
56.93
56.6789
56.2543
55.6406
54.8469
53.9003
52.8369
51.6911
50.4984
49.2817
48.0596
46.8464
45.6532
44.4886
43.3542
42.2517
41.1825
40.1497
39.1669
38.2452
37.3927
36.6044
35.8577
35.1143
34.3325
33.4784
32.5427
31.542
30.5107
29.4901
28.5109
27.5848
26.7015
25.8329
24.9507
24.0404
23.1035
22.1574
21.2318
20.3558
19.5414
18.7846
18.0663
17.355
16.614
15.8049
14.9014
13.885
12.7465
11.4934
10.1464
8.73824
7.31376
5.9133
4.566
3.28391
2.05104
0.835694
-0.398663
-1.67943
-3.01577
-4.40064
-5.81558
-7.24119
-8.66737
-10.0922
-11.5123
-12.9236
-14.3131
-15.6676
-16.9831
-18.2719
-19.5602
-20.8777
-22.2452
-23.6594
-25.0938
-26.5018
-27.8423
-29.0871
-30.2334
-31.2965
-32.3055
-33.2861
-34.2585
-35.2374
-36.2377
-37.2736
-38.3576
-39.4911
-40.6616
-41.8411
-42.9961
-44.0995
-45.1366
-46.1122
-47.0473
-47.9638
-48.8754
-49.7849
-50.6786
-51.5328
-52.3287
-53.0566
-53.7321
-54.3991
-55.1131
-55.9332
-56.8975
-58.0107
-59.2264
-60.4688
-61.6435
-62.674
-63.5155
-64.1682
-64.6687
-65.0672
-65.3922
-65.6392
-65.7551
-65.6546
-65.2397
-64.4321
-63.18
-61.4699
-59.3181
-56.7598
-53.8414
-50.6125
-47.1321
-43.4693
-39.7062
-35.9273
-32.2093
-28.6095
-25.1507
-21.8111
-18.5458
-15.3026
-12.0483
-8.78563
-5.55775
-2.43483
0.511598
3.23791
5.73978
8.05023
10.2189
12.2917
14.288
16.1958
17.9788
19.6013
21.0476
22.3349
23.5069
24.6226
25.7306
26.8616
28.0171
29.1825
30.3307
31.4406
32.5007
33.5033
34.4399
35.2989
36.0595
36.7012
37.2075
37.5777
37.8309
37.9999
38.1169
38.2025
38.2578
38.2614
38.1842
38.0062
37.7274
37.3746
36.9892
36.609
36.2475
35.8883
35.4812
34.9673
34.3021
33.4678
32.4873
31.4082
30.2877
29.1719
28.0892
27.0485
26.0551
25.1133
24.2314
23.4187
22.6783
21.9961
21.3444
20.693
20.0146
19.2964
18.5441
17.7777
17.0231
16.3029
15.6328
15.0125
14.4325
13.8803
13.3371
12.7819
12.1974
11.5636
10.8723
10.1273
9.33923
8.52955
7.71555
6.90074
6.0769
5.22657
4.33197
3.39351
2.42495
1.45437
0.510349
-0.391415
-1.25382
-2.10332
-2.97132
-3.88834
-4.86797
-5.90989
-7.00081
-8.12577
-9.27726
-10.4515
-11.6538
-12.8827
-14.1272
-15.3695
-16.5952
-17.798
-18.9859
-20.1723
-21.3696
-22.5809
-23.798
-25.0017
-26.1812
-27.3319
-28.4656
-29.6011
-30.7551
-31.9345
-33.1292
-34.3179
-35.4692
-36.5532
-37.5529
-38.4593
-39.2809
-40.0372
-40.7534
-41.4597
-42.1833
-42.9376
-43.7197
-44.5135
-45.2904
-46.0221
-46.6935
-47.3226
-47.9469
-48.62
-49.3801
-50.2411
-51.1696
-52.1039
-52.9687
-53.7137
-54.3294
-54.8509
-55.35
-55.8983
-56.5375
-57.2537
-57.9855
-58.6379
-59.1077
-59.3115
-59.1965
-58.7423
-57.9491
-56.8185
-55.3565
-53.5664
-51.4531
-49.0298
-46.3177
-43.3426
-40.1306
-36.7166
-33.1466
-29.4817
-25.8029
-22.1984
-18.7508
-15.5111
-12.4946
-9.67332
-6.99534
-4.39981
-1.83989
0.700699
3.21224
5.66625
8.02697
10.2634
12.35
14.2712
16.0109
17.551
18.8737
19.9703
20.8523
21.5534
22.128
22.6421
23.1571
23.7098
24.3107
24.9411
25.5671
26.1515
26.6679
27.1037
27.4612
27.7448
27.9554
28.0876
28.1284
28.0665
27.8995
27.6378
27.3009
26.9102
26.4791
26.0069
25.4835
24.8978
24.2486
23.5511
22.8338
22.1234
21.4317
20.7429
20.0211
19.2284
18.3416
17.379
16.3847
15.4251
14.5531
13.7845
13.0872
12.3946
11.6338
10.7537
9.74476
8.63765
7.49493
6.38307
5.35276
4.42941
3.60878
2.87003
2.17992
1.50049
0.79803
0.0472256
-0.763579
-1.62938
-2.52938
-3.43318
-4.30421
-5.11999
-5.871
-6.56516
-7.22212
-7.8686
-8.52094
-9.18694
-9.8595
-10.5298
-11.1931
-11.8592
-12.5532
-13.3117
-14.1681
-15.1402
-16.2217
-17.3759
-18.5478
-19.6825
-20.7419
-21.7227
-22.6499
-23.5721
-24.535
-25.5662
-26.6569
-27.7761
-28.8747
-29.9136
-30.8798
-31.7878
-32.6774
-33.5906
-34.5624
-35.6051
-36.7077
-37.8381
-38.9583
-40.0356
-41.0521
-42.0066
-42.9183
-43.8188
-44.7406
-45.7125
-46.7473
-47.8404
-48.9708
-50.1056
-51.2086
-52.2467
-53.2028
-54.0702
-54.8592
-55.588
-56.2815
-56.9591
-57.6435
-58.349
-59.0869
-59.8683
-60.6946
-61.5578
-62.4331
-63.288
-64.0798
-64.7679
-65.3279
-65.7601
-66.0927
-66.3757
-66.6709
-67.0256
-67.4545
-67.9258
-68.3603
-68.6442
-68.6483
-68.2604
-67.4069
-66.063
-64.2602
-62.0699
-59.5836
-56.8854
-54.0352
-51.057
-47.95
-44.708
-41.34
-37.8852
-34.4135
-31.0056
-27.7293
-24.6198
-21.671
-18.8486
-16.1092
-13.4272
-10.8002
-8.25239
-5.82061
-3.54469
-1.45015
0.452531
2.1561
3.66811
5.00337
6.19103
7.27079
8.29123
9.29467
10.2993
11.296
12.2487
13.1123
13.857
14.477
14.9993
15.4713
15.9424
16.4432
16.9842
17.554
18.134
18.7022
19.2442
19.7444
20.1836
20.5346
20.772
20.8722
20.8288
20.6596
20.3968
20.0844
19.7504
19.4077
19.0469
18.6373
18.1445
17.5476
16.8477
16.0705
15.2593
14.4572
13.6931
12.9664
12.2462
11.4924
10.6694
9.76933
8.81835
7.8717
6.99476
6.23651
5.6117
5.0969
4.64078
4.18228
3.67111
3.07907
2.40219
1.65766
0.87317
0.0758222
-0.711179
-1.4745
-2.21241
-2.93633
-3.66523
-4.41904
-5.20698
-6.0185
-6.8222
-7.56971
-8.2173
-8.74298
-9.16317
-9.52772
-9.90594
-10.3716
-10.9714
-11.722
-12.6049
-13.5762
-14.5885
-15.5941
-16.5617
-17.4716
-18.3251
-19.1361
-19.9274
-20.7235
-21.5439
-22.393
-23.259
-24.1225
-24.9651
-25.7873
-26.6187
-27.5028
-28.4935
-29.6283
-30.9083
-32.2949
-33.7118
-35.0693
-36.289
-37.327
-38.1814
-38.8928
-39.5321
-40.1696
-40.866
-41.6465
-42.5148
-43.4489
-44.4147
-45.3882
-46.351
-47.2951
-48.2155
-49.1058
-49.952
-50.7409
-51.4594
-52.106
-52.6902
-53.2321
-53.7533
-54.2787
-54.8201
-55.3845
-55.9699
-56.5701
-57.1789
-57.7892
-58.3952
-58.9897
-59.5604
-60.092
-60.5639
-60.9577
-61.253
-61.4414
-61.5124
-61.462
-61.2702
-60.9028
-60.3075
-59.4168
-58.1605
-56.4957
-54.4122
-51.9483
-49.1817
-46.2107
-43.1315
-40.014
-36.9005
-33.798
-30.705
-27.6144
-24.5288
-21.4589
-18.4229
-15.444
-12.5415
-9.73551
-7.04823
-4.50029
-2.11678
0.086881
2.09941
3.93028
5.6035
7.15682
8.63601
10.0888
11.5517
13.039
14.5477
16.0507
17.5008
18.8507
20.0594
21.1088
22.007
22.7869
23.4929
24.1627
24.8223
25.4769
26.1168
26.7283
27.302
27.8324
28.3121
28.729
29.0587
29.2721
29.3425
29.2588
29.0327
28.6876
28.2619
27.785
27.2683
26.7112
26.1019
25.4318
24.7045
23.9472
23.1962
22.4947
21.8706
21.3281
20.8439
20.3699
19.8508
19.245
18.5326
17.7328
16.8927
16.072
15.3216
14.6659
14.0941
13.5632
13.0134
12.3941
11.6846
10.8993
10.0896
9.32787
8.68012
8.18969
7.85523
7.63298
7.44195
7.18758
6.78866
6.20231
5.43484
4.54053
3.60626
2.71493
1.92305
1.24012
0.633541
0.0415384
-0.597038
-1.32489
-2.14586
-3.03751
-3.95824
-4.86633
-5.73452
-6.54611
-7.30603
-8.0244
-8.7136
-9.38975
-10.0731
-10.7867
-11.5496
-12.3795
-13.2839
-14.2591
-15.2902
-16.3597
-17.451
-18.5509
-19.6533
-20.7564
-21.8636
-22.978
-24.1056
-25.2534
-26.4261
-27.6206
-28.8285
-30.0289
-31.1987
-32.311
-33.3484
-34.3028
-35.1826
-36.009
-36.8069
-37.6095
-38.4411
-39.3171
-40.245
-41.2177
-42.216
-43.213
-44.1848
-45.1106
-45.9799
-46.7933
-47.5625
-48.3038
-49.0387
-49.7848
-50.5572
-51.3644
-52.2035
-53.0593
-53.9123
-54.7391
-55.5166
-56.2305
-56.8702
-57.4284
-57.8864
-58.2146
-58.3691
-58.2977
-57.9499
-57.2933
-56.3176
-55.0357
-53.4745
-51.6662
-49.6287
-47.3675
-44.8825
-42.1806
-39.286
-36.2482
-33.1335
-30.0154
-26.9499
-23.975
-21.1007
-18.3174
-15.6121
-12.9783
-10.4239
-7.97278
-5.65578
-3.50517
-1.54952
0.19939
1.7435
3.09885
4.29931
5.3919
6.42626
7.4425
8.46159
9.4776
10.4607
11.3667
12.1612
12.8286
13.3796
13.8425
14.2434
14.5952
14.8888
15.1021
15.2179
15.2445
15.2214
15.2135
15.2897
15.4947
15.8271
16.2351
16.6329
16.9213
17.0167
16.878
16.5151
15.9789
15.347
14.7046
14.1186
13.6205
13.2099
12.8512
12.4902
12.0693
11.5457
10.9037
10.1567
9.34584
8.52782
7.75393
7.06445
6.47061
5.95596
5.48807
5.02585
4.53866
4.01218
3.4542
2.89151
2.35642
1.8767
1.47047
1.14221
0.881281
0.672952
0.487413
0.297249
0.0659801
-0.240608
-0.650841
-1.17963
-1.82056
-2.55038
-3.32658
-4.10246
-4.83204
-5.48803
-6.06877
-6.60077
-7.13228
-7.7205
-8.41303
-9.2331
-10.1682
-11.1756
-12.1984
-13.1813
-14.091
-14.9209
-15.6846
-16.4069
-17.1092
-17.805
-18.4952
-19.1905
-19.9059
-20.6731
-21.5195
-22.4598
-23.4772
-24.5258
-25.5413
-26.4751
-27.3201
-28.1135
-28.9314
-29.8584
-30.9489
-32.2022
-33.5581
-34.9174
-36.1762
-37.2612
-38.1541
-38.884
-39.5133
-40.1093
-40.7184
-41.3564
-42.0221
-42.7025
-43.3971
-44.115
-44.8721
-45.674
-46.5152
-47.3713
-48.2125
-49.0181
-49.788
-50.5476
-51.335
-52.1866
-53.1122
-54.084
-55.0269
-55.838
-56.4136
-56.6766
-56.6005
-56.2167
-55.5979
-54.8208
-53.9394
-52.9616
-51.846
-50.5172
-48.8964
-46.9265
-44.5885
-41.9143
-38.9691
-35.8474
-32.6481
-29.465
-26.3707
-23.4026
-20.5645
-17.8217
-15.1249
-12.4207
-9.68544
-6.92532
-4.18309
-1.51875
1.01222
3.38177
5.59297
7.6688
9.63879
11.5141
13.2849
14.9219
16.4018
17.7116
18.8669
19.9073
20.8845
21.8458
22.821
23.814
24.8026
25.7559
26.6383
27.4264
28.1136
28.7147
29.2611
29.785
30.3134
30.8533
31.3895
31.8769
32.2644
32.4993
32.5485
32.408
32.1071
31.6942
31.2282
30.7605
30.321
29.9192
29.547
29.1866
28.8161
28.4202
27.9888
27.5142
26.9946
26.4281
25.811
25.1449
24.4361
23.6957
22.939
22.1859
21.4524
20.7478
20.0747
19.4324
18.8221
18.2465
17.7124
17.2237
16.7715
16.3327
15.8724
15.357
14.7682
14.1194
13.4514
12.822
12.2856
11.8673
11.5516
11.2877
11.0011
10.6204
10.0972
9.42053
8.61126
7.71426
6.78126
5.85766
4.97464
4.14567
3.37236
2.64853
1.95845
1.28636
0.608894
-0.0989032
-0.862775
-1.70418
-2.63732
-3.66379
-4.77028
-5.9299
-7.10945
-8.26704
-9.36933
-10.3922
-11.3286
-12.184
-12.9817
-13.7485
-14.5126
-15.3062
-16.1447
-17.0378
-17.9821
-18.968
-19.9761
-20.9847
-21.9684
-22.9042
-23.7751
-24.5712
-25.298
-25.9792
-26.648
-27.3421
-28.0928
-28.9136
-29.7959
-30.7119
-31.6244
-32.502
-33.3268
-34.1038
-34.8437
-35.5677
-36.2915
-37.0144
-37.724
-38.4068
-39.0527
-39.6593
-40.2313
-40.7699
-41.2586
-41.6601
-41.9142
-41.9521
-41.7077
-41.1337
-40.2076
-38.9244
-37.2892
-35.312
-33.0032
-30.3756
-27.4532
-24.2833
-20.9223
-17.4386
-13.8977
-10.3569
-6.86283
-3.45257
-0.15685
3.00212
6.0116
8.87297
11.6106
14.2584
16.8544
19.4198
21.9558
24.4347
26.8079
29.0289
31.0602
32.8924
34.5412
36.0432
37.4399
38.7704
40.06
41.3195
42.5442
43.7228
44.8403
45.8821
46.8323
47.6843
48.4397
49.1125
49.7321
50.3332
50.9482
51.596
52.2666
52.9166
53.4823
53.8977
54.115
54.1283
53.9706
53.7065
53.4017
53.0959
52.793
52.4549
52.0269
51.4593
50.7351
49.8692
48.9086
47.9047
46.8988
45.9122
44.9478
44.0055
43.0857
42.1963
41.3454
40.5337
39.7489
38.9625
38.1485
37.2957
36.4207
35.5572
34.7507
34.0382
33.4404
32.9492
32.5468
32.2108
31.9247
31.6761
31.4533
31.2422
31.0165
30.7506
30.4197
30.0136
29.5316
28.9867
28.3939
27.7666
27.1114
26.433
25.7332
25.0157
24.2873
23.5636
22.8597
22.191
21.559
20.9551
20.3497
19.7055
18.9837
18.1598
17.2336
16.2287
15.1793
14.1221
13.0789
12.0551
11.0384
10.0205
9.00327
7.9965
7.01412
6.05748
5.11051
4.14244
3.12501
2.0554
0.964107
-0.0928337
-1.0524
-1.88735
-2.61544
-3.30851
-4.06411
-4.96657
-6.04789
-7.27435
-8.54968
-9.74842
-10.7594
-11.5208
-12.0435
-12.4012
-12.7057
-13.0686
-13.5673
-14.2237
-15.0098
-15.8638
-16.7154
-17.5127
-18.2408
-18.9196
-19.5892
-20.2969
-21.0735
-21.9305
-22.8513
-23.8085
-24.7667
-25.6927
-26.5572
-27.3272
-27.9628
-28.4129
-28.6187
-28.5161
-28.0475
-27.1711
-25.8632
-24.1249
-21.9773
-19.4623
-16.6316
-13.5405
-10.2409
-6.77911
-3.1863
0.512354
4.29708
8.14897
12.0483
15.9661
19.863
23.6919
27.4005
30.9418
34.2806
37.4095
40.3493
43.1396
45.8193
48.4147
50.9212
53.3071
55.5153
57.4965
59.2249
60.7104
61.9926
63.1313
64.1868
65.209
66.2316
67.267
68.313
69.3545
70.3667
71.3204
72.1871
72.9496
73.6129
74.2048
74.7634
75.323
75.9025
76.4967
77.0735
77.5906
78.0125
78.3296
78.5492
78.6993
78.8171
78.9303
79.0556
79.1855
79.3081
79.4005
79.4453
79.4287
79.3434
79.1891
78.9767
78.7229
78.4509
78.1901
77.9726
77.8264
77.7682
77.8038
77.9215
78.1045
78.3295
78.5715
78.8163
79.0543
79.2814
79.4914
79.6786
79.8359
79.9671
80.0822
80.2003
80.3491
80.5527
80.8216
81.1456
81.4984
81.8445
82.1429
82.3587
82.4633
82.441
82.2913
82.0262
81.67
81.2558
80.8126
80.3644
79.916
79.4535
78.9528
78.3843
77.7202
76.9398
76.0366
75.011
73.8742
72.6452
71.3534
70.036
68.7346
67.4785
66.2741
65.1091
63.9456
62.7402
61.458
60.0872
58.6418
57.1476
55.6337
54.1183
52.6069
51.0998
49.5972
48.104
46.6316
45.1861
43.769
42.3724
40.988
39.6206
38.2736
36.957
35.6693
34.3864
33.0637
31.6528
30.1265
28.4949
26.8078
25.1415
23.5665
22.1192
20.7887
19.521
18.2462
16.9077
15.48
13.9809
12.4529
10.9452
9.50213
8.14477
6.87672
5.6933
4.58129
3.52802
2.51843
1.52985
0.539583
-0.474472
-1.52258
-2.60251
-3.69412
-4.75744
-5.74289
-6.59321
-7.24747
-7.64614
-7.74019
-7.48765
-6.85735
-5.82586
-4.37499
-2.4917
-0.166758
2.59227
5.76422
9.30428
13.1514
17.2354
21.4924
25.8789
30.3702
34.9618
39.6589
44.4526
49.3196
54.2131
59.0686
63.8304
68.4574
72.9283
77.2508
81.4391
85.5122
89.4769
93.3251
97.0438
100.62
104.049
107.34
110.514
113.596
116.6
119.53
122.376
125.118
127.739
130.231
132.598
134.856
137.017
139.095
141.091
143.001
144.817
146.532
148.146
149.663
151.085
152.415
153.647
154.771
155.779
156.667
157.438
158.103
158.666
159.13
159.485
159.713
159.798
159.74
159.556
159.283
158.966
158.647
158.344
158.053
157.74
157.356
156.856
156.201
155.377
154.39
153.259
152.016
150.694
149.328
147.95
146.585
145.251
143.948
142.668
141.387
140.076
138.713
137.289
135.806
134.278
132.722
131.146
129.552
127.935
126.288
124.609
122.909
121.203
119.515
117.861
116.247
114.665
113.097
111.517
109.892
108.199
106.426
104.575
102.669
100.741
98.8276
96.955
95.1272
93.316
91.4748
89.5485
87.5022
85.3426
83.1154
80.9044
78.7945
76.8407
75.0474
73.3651
71.7066
69.9805
68.1223
66.1172
63.9964
61.823
59.6607
57.5626
55.5489
53.6118
51.727
49.8743
48.0456
46.2494
44.502
42.8181
41.1937
39.6063
38.02
36.3936
34.7003
32.9399
31.1387
29.3422
27.6061
25.9703
24.4547
23.0473
21.7101
20.3908
19.0419
17.6318
16.1534
14.6267
13.092
11.5896
10.1547
8.80211
7.52512
6.29672
5.0819
3.84742
2.5804
1.28743
-0.00781999
-1.25963
-2.40843
-3.38175
-4.09085
-4.43452
-4.31319
-3.64359
-2.37992
-0.522297
1.88189
4.76008
8.03394
11.6405
15.5381
19.7053
24.1215
28.7514
33.5425
38.4218
43.3163
48.1637
52.9221
57.5774
62.1255
66.578
70.9336
75.1852
79.3101
83.2784
87.0445
90.5619
93.788
96.6927
99.2682
101.537
103.553
105.388
107.11
108.771
110.391
111.957
113.431
114.766
115.932
116.911
117.715
118.364
118.88
119.279
119.563
119.722
119.752
119.656
119.453
119.171
118.847
118.51
118.175
117.839
117.474
117.032
116.458
115.694
114.7
113.468
112.024
110.436
108.792
107.182
105.669
104.289
103.033
101.866
100.741
99.6172
98.4695
97.2907
96.0878
94.8705
93.6531
92.4507
91.2803
90.1668
89.1322
88.1898
87.3341
86.542
85.7763
84.9995
84.1891
83.3414
82.4666
81.5756
80.6738
79.7531
78.8018
77.8132
76.7963
75.7709
74.7571
73.7604
72.7695
71.7512
70.6612
69.4651
68.1494
66.7194
65.1954
63.5984
61.9374
60.2124
58.4165
56.5397
54.5887
52.5776
50.5302
48.4701
46.4196
44.3933
42.4031
40.4581
38.5615
36.7062
34.8776
33.0542
31.2082
29.317
27.3705
25.3668
23.3184
21.246
19.1755
17.1311
15.1237
13.147
11.175
9.1715
7.09446
4.92596
2.67594
0.385654
-1.88343
-4.0754
-6.15651
-8.12902
-10.0326
-11.9258
-13.8616
-15.8695
-17.948
-20.0598
-22.1505
-24.165
-26.0599
-27.8144
-29.4371
-30.9573
-32.4242
-33.8865
-35.3879
-36.9482
-38.5628
-40.1977
-41.8103
-43.3649
-44.8531
-46.2928
-47.7249
-49.1908
-50.7083
-52.2586
-53.7967
-55.2547
-56.5751
-57.7146
-58.6486
-59.358
-59.809
-59.9422
-59.676
-58.9226
-57.6066
-55.6895
-53.178
-50.114
-46.5674
-42.6196
-38.3462
-33.819
-29.0965
-24.2347
-19.2853
-14.2982
-9.32203
-4.40682
0.401374
5.05853
9.54459
13.8519
18.0058
22.0532
26.0529
30.047
34.0543
38.0459
41.9569
45.7022
49.2049
52.4197
55.353
58.0675
60.6603
63.2421
65.9086
68.7166
71.6792
74.7671
77.9274
81.1092
84.2761
87.42
90.5529
93.6956
96.8612
100.046
103.22
106.336
109.332
112.147
114.718
116.998
118.956
120.585
121.907
122.968
123.825
124.53
125.116
125.581
125.895
126.012
125.892
125.517
124.903
124.091
123.14
122.109
121.041
119.966
118.896
117.825
116.742
115.631
114.471
113.249
111.958
110.6
109.19
107.748
106.288
104.823
103.345
101.843
100.302
98.7105
97.0699
95.3885
93.6779
91.9501
90.2149
88.4719
86.7208
84.963
83.2033
81.4464
79.6989
77.9602
76.2193
74.4601
72.6712
70.8485
69.0022
67.1586
65.3448
63.5733
61.8268
60.0595
58.2105
56.2207
54.0639
51.7506
49.3334
46.881
44.4625
42.1229
39.8723
37.696
35.5621
33.4359
31.2897
29.1053
26.8757
24.5983
22.2799
19.9325
17.5715
15.2104
12.8556
10.5059
8.15555
5.79995
3.44649
1.1147
-1.17469
-3.41558
-5.62532
-7.84386
-10.1204
-12.4876
-14.9407
-17.4278
-19.8685
-22.1782
-24.3005
-26.2263
-27.988
-29.6438
-31.2422
-32.8074
-34.3301
-35.7813
-37.1363
-38.3883
-39.5591
-40.6813
-41.7834
-42.8681
-43.9197
-44.9018
-45.7897
-46.5778
-47.2871
-47.9424
-48.5539
-49.0962
-49.5012
-49.6667
-49.4863
-48.8726
-47.7767
-46.1801
-44.0864
-41.5094
-38.4574
-34.9389
-30.9744
-26.6083
-21.9181
-17.0057
-11.9774
-6.92051
-1.89369
3.07851
7.99248
12.8467
17.6196
22.2716
26.7477
30.9897
34.957
38.6282
42.0071
45.1058
47.9425
50.5342
52.8925
55.0302
56.973
58.7524
60.4049
61.9582
63.4255
64.7877
66.0013
67.0079
67.7557
68.2125
68.3776
68.2836
67.9836
67.5419
67.02
66.4682
65.9235
65.4076
64.9277
64.4798
64.0539
63.6347
63.2037
62.7457
62.239
61.6539
60.9508
60.0837
59.0097
57.7025
56.1652
54.4394
52.5952
50.7139
48.8708
47.1175
45.4695
43.9144
42.4215
40.9579
39.5007
38.039
36.5747
35.121
33.6968
32.3265
31.036
29.8474
28.7739
27.8129
26.9476
26.1447
25.3678
24.5812
23.7642
22.9023
21.9923
21.0423
20.0594
19.0557
18.0405
17.0149
15.9671
14.8729
13.6974
12.4057
10.9822
9.4332
7.79413
6.11866
4.46466
2.87732
1.37512
-0.0509023
-1.42349
-2.77707
-4.14056
-5.5328
-6.95573
-8.40647
-9.87885
-11.3663
-12.868
-14.3866
-15.9313
-17.511
-19.1356
-20.8089
-22.5297
-24.2911
-26.0777
-27.8741
-29.6643
-31.4388
-33.1965
-34.9441
-36.696
-38.4662
-40.2673
-42.1097
-43.9912
-45.9037
-47.8354
-49.7748
-51.7161
-53.6545
-55.5972
-57.5482
-59.5037
-61.4501
-63.366
-65.2285
-67.013
-68.7106
-70.3252
-71.8734
-73.3893
-74.9112
-76.4856
-78.1564
-79.9538
-81.8855
-83.9333
-86.0508
-88.1761
-90.2509
-92.2336
-94.112
-95.9014
-97.6401
-99.3695
-101.116
-102.889
-104.673
-106.433
-108.122
-109.679
-111.046
-112.16
-112.966
-113.426
-113.519
-113.248
-112.623
-111.662
-110.375
-108.764
-106.836
-104.608
-102.127
-99.4671
-96.723
-93.9908
-91.3477
-88.837
-86.4623
-84.2038
-82.0279
-79.9135
-77.8598
-75.8944
-74.0572
-72.395
-70.9412
-69.707
-68.683
-67.8347
-67.1178
-66.4828
-65.8872
-65.3094
-64.7548
-64.2534
-63.8536
-63.6082
-63.5569
-63.7097
-64.0437
-64.5089
-65.0431
-65.5868
-66.1044
-66.591
-67.076
-67.6132
-68.264
-69.0817
-70.0928
-71.2882
-72.6247
-74.0349
-75.4468
-76.8004
-78.0722
-79.2731
-80.4526
-81.68
-83.0217
-84.5152
-86.1634
-87.9265
-89.7404
-91.539
-93.2728
-94.9278
-96.5284
-98.1171
-99.738
-101.412
-103.117
-104.798
-106.376
-107.781
-108.983
-110.001
-110.912
-111.816
-112.805
-113.927
-115.176
-116.491
-117.787
-118.985
-120.047
-120.981
-121.83
-122.656
-123.505
-124.393
-125.295
-126.167
-126.965
-127.663
-128.278
-128.859
-129.475
-130.19
-131.04
-132.015
-133.073
-134.142
-135.152
-136.051
-136.828
-137.509
-138.148
-138.816
-139.57
-140.435
-141.404
-142.433
-143.451
-144.386
-145.186
-145.831
-146.341
-146.77
-147.192
-147.678
-148.284
-149.032
-149.912
-150.892
-151.916
-152.926
-153.866
-154.693
-155.39
-155.96
-156.434
-156.868
-157.318
-157.837
-158.45
-159.152
-159.902
-160.644
-161.326
-161.919
-162.426
-162.883
-163.334
-163.814
-164.338
-164.892
-165.444
-165.961
-166.427
-166.845
-167.239
-167.644
-168.088
-168.585
-169.124
-169.666
-170.154
-170.514
-170.669
-170.552
-170.12
-169.347
-168.237
-166.809
-165.087
-163.097
-160.855
-158.376
-155.675
-152.768
-149.678
-146.428
-143.039
-139.531
-135.924
-132.245
-128.527
-124.801
-121.098
-117.438
-113.828
-110.271
-106.781
-103.39
-100.149
-97.1131
-94.3259
-91.8004
-89.5084
-87.3909
-85.374
-83.3981
-81.4301
-79.4736
-77.5601
-75.7317
-74.0229
-72.4539
-71.0254
-69.7108
-68.474
-67.2708
-66.0639
-64.8276
-63.5598
-62.2864
-61.066
-59.9654
-59.0531
-58.381
-57.9689
-57.7942
-57.8033
-57.9257
-58.0914
-58.2454
-58.3606
-58.4378
-58.4976
-58.566
-58.6649
-58.799
-58.9564
-59.101
-59.1882
-59.1737
-59.0286
-58.7552
-58.3921
-58.0099
-57.6869
-57.4913
-57.4531
-57.5551
-57.7416
-57.9422
-58.0996
-58.1912
-58.2272
-58.2466
-58.2795
-58.3263
-58.3497
-58.2802
-58.0513
-57.6324
-57.0453
-56.3693
-55.7166
-55.193
-54.8582
-54.714
-54.7014
-54.7305
-54.7032
-54.5583
-54.2766
-53.8779
-53.4085
-52.92
-52.4492
-52.0185
-51.6396
-51.3203
-51.0757
-50.925
-50.883
-50.9516
-51.1122
-51.3317
-51.5758
-51.8136
-52.0358
-52.2469
-52.4558
-52.6689
-52.8818
-53.079
-53.2504
-53.404
-53.5632
-53.7627
-54.0382
-54.4091
-54.8661
-55.3741
-55.888
-56.3638
-56.769
-57.0883
-57.3212
-57.4803
-57.5858
-57.6667
-57.7559
-57.8895
-58.092
-58.3739
-58.7236
-59.1174
-59.5222
-59.9141
-60.2851
-60.645
-61.0057
-61.3738
-61.7387
-62.0693
-62.3279
-62.481
-62.5099
-62.4117
-62.1865
-61.8191
-61.2673
-60.4601
-59.3142
-57.7513
-55.7275
-53.2433
-50.3312
-47.0435
-43.4346
-39.5401
-35.3807
-30.9682
-26.328
-21.506
-16.5737
-11.6111
-6.69462
-1.86788
2.85505
7.49132
12.0687
16.6107
21.1179
25.5707
29.9365
34.1816
38.2845
42.2446
46.0773
49.8065
53.4556
57.0369
60.5489
63.9746
67.2934
70.48
73.5171
76.3978
79.1227
81.6989
84.1376
86.4523
88.6595
90.7715
92.8024
94.7623
96.6552
98.4807
100.234
101.905
103.478
104.93
106.238
107.379
108.34
109.128
109.767
110.293
110.743
111.143
111.493
111.779
111.976
112.07
112.059
111.97
111.834
111.681
111.517
111.323
111.062
110.689
110.17
109.503
108.715
107.863
107.017
106.244
105.588
105.063
104.649
104.298
103.947
103.538
103.031
102.409
101.679
100.865
99.9986
99.1132
98.2334
97.372
96.5377
95.7208
94.9047
94.0702
93.2027
92.2967
91.3677
90.444
89.5623
88.7471
87.9986
87.2894
86.573
85.7975
84.9296
83.9617
82.9149
81.8227
80.7143
79.5992
78.4645
77.2814
76.0233
74.6747
73.2414
71.7477
70.2199
68.6762
67.1166
65.524
63.8704
62.1307
60.2966
58.3767
56.3973
54.396
52.4016
50.4384
48.5183
46.6465
44.8232
43.0528
41.3372
39.6806
38.0848
36.5426
35.04
33.5598
32.0868
30.6093
29.1233
27.6347
26.1514
24.6832
23.237
21.8182
20.4348
19.0903
17.7947
16.5519
15.3637
14.2266
13.1341
12.082
11.0793
10.1505
9.34046
8.70682
8.32002
8.24567
8.537
9.23476
10.3621
11.9283
13.9411
16.4017
19.3102
22.656
26.4127
30.5284
34.9229
39.4993
44.1572
48.8034
53.3811
57.8675
62.2701
66.6189
70.9379
75.2417
79.5177
83.7443
87.8951
91.9501
95.8932
99.7224
103.43
107
110.414
113.657
116.714
119.587
122.293
124.844
127.256
129.536
131.69
133.724
135.645
137.469
139.21
140.871
142.448
143.93
145.299
146.547
147.674
148.684
149.584
150.365
151.001
151.457
151.693
151.674
151.389
150.833
150.023
148.974
147.698
146.205
144.511
142.638
140.627
138.534
136.42
134.345
132.355
130.468
128.679
126.962
125.275
123.579
121.837
120.037
118.178
116.278
114.355
112.434
110.538
108.683
106.886
105.156
103.503
101.927
100.42
98.9638
97.5256
96.0728
94.5793
93.0283
91.4231
89.7812
88.1215
86.4598
84.7995
83.1311
81.4422
79.7294
77.9963
76.2655
74.5599
72.9007
71.2961
69.7337
68.1883
66.6258
65.0126
63.3208
61.5406
59.6698
57.7171
55.6979
53.6236
51.5043
49.3488
47.1617
44.9517
42.7297
40.5109
38.3089
36.1308
33.9773
31.8372
29.6926
27.5285
25.3333
23.1048
20.8519
18.5868
16.316
14.0528
11.8045
9.58877
7.43294
5.36905
3.42582
1.61186
-0.0908813
-1.73543
-3.39529
-5.14791
-7.04866
-9.11411
-11.3182
-13.5965
-15.8635
-18.0478
-20.1038
-22.0263
-23.852
-25.6457
-27.4766
-29.403
-31.4563
-33.6302
-35.8811
-38.1389
-40.3124
-42.3064
-44.0387
-45.4471
-46.488
-47.1496
-47.4329
-47.3461
-46.9016
-46.1077
-44.9732
-43.502
-41.6993
-39.5778
-37.1545
-34.4542
-31.517
-28.3969
-25.1608
-21.8809
-18.6358
-15.4893
-12.4846
-9.64642
-6.97567
-4.4573
-2.07227
0.203269
2.38428
4.48136
6.49738
8.43707
10.2938
12.0588
13.7143
15.2427
16.6142
17.8078
18.8118
19.6321
20.2971
20.8515
21.3475
21.8302
22.3117
22.7732
23.1725
23.4541
23.5819
23.5499
23.3904
23.1579
22.9079
22.6704
22.438
22.1705
21.8076
21.2945
20.6007
19.7192
18.6702
17.4837
16.1923
14.8163
13.3673
11.8472
10.2591
8.60308
6.88965
5.13799
3.37016
1.60995
-0.126479
-1.83617
-3.5308
-5.23755
-6.98244
-8.78074
-10.6321
-12.5196
-14.4101
-16.2713
-18.0776
-19.8151
-21.4782
-23.0659
-24.5777
-26.0131
-27.3735
-28.6697
-29.9276
-31.181
-32.472
-33.8373
-35.2964
-36.8493
-38.4815
-40.1653
-41.8706
-43.571
-45.2434
-46.8751
-48.4602
-49.9943
-51.4864
-52.9503
-54.4039
-55.866
-57.3477
-58.8528
-60.375
-61.8953
-63.3968
-64.8614
-66.2761
-67.636
-68.9414
-70.2018
-71.4315
-72.6511
-73.8891
-75.1731
-76.5264
-77.9652
-79.4925
-81.0889
-82.7261
-84.3653
-85.9691
-87.5064
-88.9676
-90.3582
-91.7052
-93.0439
-94.4055
-95.8179
-97.2895
-98.8105
-100.361
-101.914
-103.447
-104.949
-106.417
-107.864
-109.295
-110.718
-112.125
-113.496
-114.808
-116.032
-117.151
-118.161
-119.082
-119.95
-120.817
-121.738
-122.753
-123.883
-125.113
-126.404
-127.696
-128.935
-130.077
-131.115
-132.07
-132.984
-133.906
-134.874
-135.894
-136.947
-137.979
-138.926
-139.723
-140.316
-140.676
-140.793
-140.664
-140.289
-139.659
-138.748
-137.528
-135.964
-134.038
-131.749
-129.115
-126.17
-122.956
-119.514
-115.878
-112.076
-108.135
-104.082
-99.9458
-95.7512
-91.5226
-87.2792
-83.0288
-78.7832
-74.557
-70.3629
-66.2175
-62.13
-58.1075
-54.1512
-50.2589
-46.4376
-42.6975
-39.0535
-35.5193
-32.0984
-28.7887
-25.5912
-22.5053
-19.5432
-16.7187
-14.0492
-11.5291
-9.13707
-6.82976
-4.55778
-2.28185
0.0131504
2.30896
4.55761
6.69462
8.66085
10.4131
11.9371
13.2431
14.3567
15.3125
16.135
16.8439
17.4389
17.9141
18.2686
18.5001
18.6198
18.6413
18.5849
18.4636
18.2861
18.0598
17.8025
17.5452
17.3261
17.1729
17.0957
17.0705
17.0417
16.945
16.737
16.4134
16.0169
15.6188
15.2962
15.0971
15.0182
15.0137
15.0138
14.9584
14.8228
14.6276
14.4346
14.3116
14.3137
14.4574
14.7158
15.0276
15.3172
15.5219
15.604
15.5652
15.4427
15.2904
15.1621
15.0906
15.0752
15.0863
15.0798
15.0086
14.8418
14.5706
14.2052
13.7652
13.2731
12.7528
12.2246
11.7038
11.2011
10.7114
10.2101
9.66146
9.01856
8.24061
7.30814
6.22973
5.04328
3.80428
2.56993
1.39068
0.300931
-0.687501
-1.57379
-2.37606
-3.12271
-3.85245
-4.60065
-5.39574
-6.24715
-7.14005
-8.03692
-8.89617
-9.68715
-10.4028
-11.0651
-11.7119
-12.3809
-13.0927
-13.844
-14.6056
-15.3425
-16.0328
-16.6631
-17.2421
-17.7883
-18.3207
-18.8475
-19.3715
-19.8891
-20.3928
-20.8742
-21.326
-21.7431
-22.118
-22.462
-22.7941
-23.1449
-23.5418
-23.9998
-24.5109
-25.0425
-25.5504
-26.0007
-26.3828
-26.7121
-27.0238
-27.3512
-27.7142
-28.1072
-28.5054
-28.8782
-29.2083
-29.4929
-29.7351
-29.9372
-30.0834
-30.1417
-30.0555
-29.763
-29.2033
-28.3143
-27.0407
-25.3328
-23.1499
-20.4671
-17.2877
-13.6389
-9.56955
-5.13405
-0.383934
4.64173
9.91671
15.4156
21.1051
26.9354
32.8376
38.7336
44.5462
50.2062
55.6682
60.8998
65.8894
70.6297
75.122
79.3732
83.3968
87.221
90.8843
94.4281
97.8878
101.281
104.606
107.838
110.935
113.862
116.598
119.14
121.509
123.735
125.85
127.871
129.799
131.625
133.333
134.906
136.338
137.626
138.775
139.789
140.673
141.426
142.042
142.514
142.82
142.937
142.842
142.525
141.99
141.263
140.381
139.385
138.308
137.165
135.952
134.651
133.248
131.736
130.127
128.453
126.765
125.109
123.517
121.999
120.533
119.075
117.577
116.008
114.367
112.687
111.034
109.471
108.044
106.761
105.587
104.459
103.309
102.092
100.795
99.4328
98.0438
96.6604
95.2998
93.9634
92.6442
91.3399
90.0611
88.8363
87.6912
86.6388
85.6724
84.7592
83.853
82.9109
81.9117
80.8633
79.8
78.7666
77.7969
76.9082
76.0866
75.3044
74.5249
73.7224
72.8883
72.0272
71.1493
70.2598
69.353
68.4121
67.4145
66.3416
65.1823
63.9365
62.6067
61.1895
59.6733
58.0365
56.2542
54.3037
52.1776
49.8944
47.4877
45.0031
42.4848
39.9696
37.472
34.9897
32.5105
30.0228
27.5278
25.0416
22.5906
20.2036
17.8974
15.6749
13.5248
11.4334
9.39229
7.40218
5.47268
3.60471
1.78266
-0.0263777
-1.8614
-3.74689
-5.68157
-7.62682
-9.51972
-11.3012
-12.9449
-14.469
-15.9329
-17.4232
-19.0103
-20.7253
-22.5464
-24.4127
-26.2405
-27.9558
-29.5266
-30.9645
-32.3181
-33.6556
-35.0395
-36.5071
-38.0603
-39.6716
-41.2962
-42.8907
-44.4269
-45.9038
-47.3368
-48.753
-50.1727
-51.6002
-53.0139
-54.3865
-55.6845
-56.8842
-57.9767
-58.9607
-59.8232
-60.5249
-60.9915
-61.1139
-60.7669
-59.8377
-58.2502
-55.9841
-53.0822
-49.6363
-45.7617
-41.5778
-37.1824
-32.6497
-28.0284
-23.3589
-18.6778
-14.035
-9.48276
-5.07322
-0.846703
3.18163
7.01524
10.6713
14.1711
17.5273
20.733
23.7757
26.6362
29.3006
31.7677
34.0567
36.1915
38.1959
40.0843
41.8496
43.4658
44.8926
46.0949
47.0534
47.7779
48.3072
48.696
49.0011
49.255
49.4577
49.5739
49.5535
49.3491
48.9419
48.3475
47.6098
46.777
45.885
44.935
43.8983
42.726
41.3686
39.7914
37.9845
35.9595
33.7457
31.389
28.9362
26.438
23.9412
21.4733
19.0432
16.6397
14.2404
11.8191
9.36083
6.8734
4.38356
1.93315
-0.438402
-2.69812
-4.83107
-6.83952
-8.73642
-10.547
-12.2877
-13.9744
-15.6173
-17.2223
-18.7982
-20.3611
-21.9353
-23.5479
-25.2231
-26.9685
-28.7695
-30.5874
-32.3742
-34.0865
-35.7003
-37.2269
-38.7093
-40.2071
-41.7773
-43.4539
-45.2384
-47.0988
-48.9844
-50.8462
-52.6523
-54.3931
-56.0831
-57.7447
-59.4041
-61.0668
-62.7262
-64.3582
-65.9422
-67.462
-68.9166
-70.3235
-71.7121
-73.1137
-74.5537
-76.0492
-77.6107
-79.241
-80.941
-82.7123
-84.5462
-86.4268
-88.3318
-90.2384
-92.1261
-93.9913
-95.8422
-97.6981
-99.5747
-101.476
-103.387
-105.267
-107.061
-108.719
-110.209
-111.531
-112.717
-113.829
-114.936
-116.096
-117.338
-118.658
-120.026
-121.4
-122.731
-123.99
-125.156
-126.233
-127.233
-128.188
-129.132
-130.106
-131.143
-132.26
-133.455
-134.699
-135.952
-137.167
-138.308
-139.354
-140.31
-141.189
-142.016
-142.815
-143.609
-144.413
-145.244
-146.116
-147.038
-148.013
-149.026
-150.056
-151.072
-152.048
-152.964
-153.81
-154.578
-155.243
-155.764
-156.075
-156.096
-155.751
-154.985
-153.777
-152.142
-150.12
-147.772
-145.157
-142.333
-139.353
-136.266
-133.115
-129.943
-126.789
-123.68
-120.635
-117.654
-114.729
-111.838
-108.957
-106.066
-103.161
-100.253
-97.3693
-94.5496
-91.8352
-89.2588
-86.8352
-84.5573
-82.408
-80.3589
-78.3892
-76.4912
-74.6714
-72.9466
-71.3389
-69.8613
-68.5117
-67.2673
-66.0913
-64.9412
-63.781
-62.5951
-61.3972
-60.2262
-59.1328
-58.1686
-57.3649
-56.7243
-56.2309
-55.8503
-55.5504
-55.3159
-55.1454
-55.0524
-55.0616
-55.1913
-55.4527
-55.8401
-56.329
-56.8838
-57.4571
-58.0054
-58.5004
-58.9351
-59.3303
-59.7364
-60.2138
-60.8155
-61.5755
-62.4897
-63.5158
-64.5831
-65.6152
-66.5506
-67.3621
-68.0629
-68.6954
-69.3054
-69.9303
-70.5716
-71.2008
-71.7641
-72.2178
-72.5373
-72.734
-72.8567
-72.9737
-73.1593
-73.4715
-73.9414
-74.5731
-75.3439
-76.2091
-77.119
-78.0225
-78.8823
-79.6854
-80.4395
-81.1663
-81.899
-82.6581
-83.4456
-84.2477
-85.0411
-85.807
-86.5437
-87.2643
-87.9872
-88.7234
-89.4679
-90.1928
-90.8706
-91.4799
-92.0303
-92.5615
-93.1315
-93.7964
-94.5875
-95.4997
-96.4945
-97.5131
-98.5021
-99.4284
-100.282
-101.079
-101.844
-102.605
-103.385
-104.199
-105.055
-105.957
-106.895
-107.841
-108.752
-109.572
-110.25
-110.76
-111.116
-111.37
-111.602
-111.887
-112.277
-112.777
-113.345
-113.908
-114.398
-114.768
-115.009
-115.151
-115.244
-115.338
-115.464
-115.637
-115.855
-116.113
-116.424
-116.809
-117.3
-117.91
-118.633
-119.428
-120.223
-120.934
-121.479
-121.802
-121.871
-121.675
-121.208
-120.455
-119.383
-117.944
-116.087
-113.786
-111.051
-107.935
-104.525
-100.922
-97.2043
-93.4187
-89.5715
-85.6328
-81.5599
-77.3114
-72.8713
-68.2435
-63.4614
-58.5865
-53.701
-48.9026
-44.292
-39.9606
-35.9647
-32.3059
-28.935
-25.7581
-22.6622
-19.5397
-16.3256
-12.9965
-9.57783
-6.12315
-2.69468
0.651748
3.87968
6.96711
9.9035
12.6836
15.2993
17.7397
19.9921
22.0444
23.8932
25.5443
27.0174
28.3489
29.5913
30.8069
32.0494
33.3646
34.7729
36.2649
37.8064
39.3391
40.7929
42.1014
43.2136
44.106
44.7871
45.2907
45.6665
45.9603
46.2024
46.4051
46.5614
46.6649
46.7082
46.6883
46.6069
46.4538
46.2099
45.8485
45.3525
44.7299
44.0246
43.3077
42.6704
42.1853
41.8877
41.7622
41.7594
41.8149
41.8756
41.9154
41.9352
41.9514
41.9843
42.0414
42.1154
42.1911
42.2508
42.2779
42.2601
42.1879
42.0584
41.8746
41.6506
41.4048
41.1529
40.9032
40.6436
40.3411
39.9504
39.4324
38.7696
37.9767
37.0992
36.202
35.3454
34.5714
33.8845
33.2531
32.6189
31.9083
31.0528
30.0075
28.7654
27.3579
25.8538
24.3362
22.8928
21.5895
20.4535
19.4756
18.6148
17.8124
17.0153
16.1809
15.2955
14.3642
13.4041
12.4308
11.4477
10.4372
9.36422
8.17993
6.84373
5.32759
3.638
1.81694
-0.056913
-1.89
-3.5981
-5.13333
-6.49893
-7.74748
-8.96502
-10.2324
-11.594
-13.0393
-14.5085
-15.9107
-17.1631
-18.2189
-19.0819
-19.7986
-20.4414
-21.0756
-21.7394
-22.4371
-23.145
-23.834
-24.479
-25.0769
-25.6514
-26.2443
-26.8989
-27.642
-28.4758
-29.3633
-30.235
-31.0024
-31.5695
-31.8522
-31.7916
-31.3462
-30.4923
-29.213
-27.4973
-25.3335
-22.7166
-19.6548
-16.1766
-12.3303
-8.17954
-3.80313
0.719055
5.31336
9.92351
14.516
19.0787
23.6186
28.1489
32.6824
37.2243
41.7651
46.2838
50.7475
55.1124
59.3257
63.3271
67.0528
70.4495
73.4885
76.1737
78.5394
80.6554
82.5959
84.431
86.2058
87.9416
89.6412
91.2947
92.8911
94.418
95.8627
97.2042
98.4166
99.4747
100.363
101.085
101.663
102.132
102.519
102.832
103.059
103.162
103.1
102.844
102.389
101.758
100.989
100.125
99.1902
98.1839
97.0837
95.8559
94.4707
92.9166
91.2084
89.3788
87.4766
85.553
83.6475
81.7927
79.9954
78.2513
76.5433
74.8534
73.1665
71.477
69.7921
68.1234
66.4855
64.8848
63.3198
61.7797
60.2472
58.7025
57.135
55.5441
53.9408
52.3536
50.8186
49.3674
48.0199
46.77
45.5867
44.4191
43.2087
41.908
40.489
38.96
37.353
35.7182
34.1087
32.5631
31.1039
29.7276
28.4125
27.1209
25.8147
24.4603
23.0358
21.5387
19.979
18.38
16.7591
15.1239
13.469
11.7865
10.0696
8.3187
6.55313
4.79433
3.05418
1.33053
-0.396511
-2.15932
-3.98294
-5.87836
-7.83696
-9.83744
-11.8563
-13.8835
-15.9234
-17.9962
-20.1211
-22.2996
-24.5171
-26.7369
-28.9172
-31.0205
-33.0424
-35.002
-36.944
-38.9178
-40.9557
-43.0616
-45.2015
-47.3098
-49.3154
-51.1656
-52.8445
-54.377
-55.8219
-57.2484
-58.7071
-60.2105
-61.7397
-63.2502
-64.6997
-66.0682
-67.3645
-68.6179
-69.8587
-71.1063
-72.3607
-73.6038
-74.8179
-76.0015
-77.1704
-78.3508
-79.5632
-80.8096
-82.0609
-83.2707
-84.3925
-85.3985
-86.2892
-87.0834
-87.8036
-88.4404
-88.9477
-89.2426
-89.2323
-88.8433
-88.0477
-86.8722
-85.3825
-83.6599
-81.7648
-79.7249
-77.5312
-75.1531
-72.5625
-69.7504
-66.736
-63.5644
-60.2906
-56.9722
-53.6521
-50.3606
-47.1126
-43.9226
-40.8027
-37.769
-34.842
-32.044
-29.3939
-26.9023
-24.5694
-22.3871
-20.3296
-18.3689
-16.4698
-14.6109
-12.7827
-10.9953
-9.27652
-7.66255
-6.18502
-4.86189
-3.68571
-2.62202
-1.61323
-0.595544
0.48947
1.67978
2.97351
4.32589
5.65193
6.84484
7.79768
8.42905
8.69718
8.62078
8.2607
7.70693
7.04842
6.34626
5.61722
4.84008
3.96439
2.94111
1.74523
0.386542
-1.09586
-2.64776
-4.21691
-5.76346
-7.26744
-8.72203
-10.1257
-11.4728
-12.7567
-13.9695
-15.1068
-16.1653
-17.1402
-18.0307
-18.8327
-19.5478
-20.1844
-20.764
-21.3232
-21.9022
-22.5286
-23.2121
-23.9378
-24.669
-25.3668
-26.0022
-26.5677
-27.0847
-27.5834
-28.0883
-28.6069
-29.1208
-29.5955
-29.9937
-30.2929
-30.5038
-30.6697
-30.8526
-31.1165
-31.5126
-32.0632
-32.7605
-33.5738
-34.4598
-35.3753
-36.2838
-37.151
-37.9541
-38.6771
-39.3174
-39.8842
-40.404
-40.9134
-41.4538
-42.0597
-42.7582
-43.5603
-44.4698
-45.4821
-46.5833
-47.754
-48.9683
-50.1877
-51.3729
-52.4834
-53.4901
-54.3757
-55.1379
-55.7836
-56.3181
-56.7503
-57.0884
-57.3521
-57.5782
-57.8235
-58.1584
-58.6481
-59.3233
-60.1722
-61.1325
-62.1051
-62.9869
-63.6967
-64.1994
-64.5169
-64.7079
-64.8467
-64.9886
-65.1569
-65.3357
-65.4833
-65.5648
-65.5706
-65.5254
-65.4901
-65.5331
-65.7146
-66.0465
-66.4991
-67.0019
-67.452
-67.7411
-67.7711
-67.4652
-66.7655
-65.6354
-64.0553
-62.0194
-59.5374
-56.6338
-53.3465
-49.7222
-45.8148
-41.6774
-37.3704
-32.9548
-28.4961
-24.0576
-19.6934
-15.4405
-11.3084
-7.2829
-3.3308
0.587507
4.50498
8.43994
12.3915
16.3376
20.2495
24.0936
27.8331
31.4433
34.9062
38.2167
41.3813
44.4149
47.3352
50.1552
52.8741
55.4779
57.9444
60.2576
62.405
64.3922
66.2382
67.9603
69.5682
71.0624
72.4363
73.6906
74.842
75.9215
76.9692
78.0163
79.068
80.0915
81.0302
81.8133
82.3808
82.7049
82.8007
82.7145
82.5116
82.256
81.9964
81.7566
81.5394
81.3259
81.0936
80.8134
80.457
80.0016
79.4466
78.8044
78.1154
77.4403
76.8364
76.3429
75.9648
75.6641
75.3757
75.0306
74.5789
74.0194
73.3935
72.7659
72.1953
71.7123
71.2937
70.8869
70.4251
69.8611
69.1898
68.441
67.6638
66.9014
66.1715
65.4614
64.7424
63.9935
63.2139
62.4193
61.6391
60.8927
60.1716
59.4443
58.6624
57.7802
56.7799
55.6774
54.5131
53.3452
52.2181
51.1452
50.105
49.0477
47.9082
46.6393
45.2261
43.6883
42.0854
40.4861
38.9556
37.5305
36.2064
34.9445
33.6814
32.3525
30.9098
29.3444
27.6847
25.9947
24.3435
22.7972
21.3914
20.1228
18.9556
17.8257
16.6634
15.4173
14.0592
12.594
11.0606
9.51472
8.00968
6.58494
5.25824
4.01251
2.81194
1.60882
0.358604
-0.963251
-2.35524
-3.79261
-5.24248
-6.6772
-8.08804
-9.49595
-10.9349
-12.4351
-13.9932
-15.5631
-17.0531
-18.349
-19.3344
-19.925
-20.0756
-19.7797
-19.0554
-17.9229
-16.3934
-14.4645
-12.1313
-9.39522
-6.28192
-2.84493
0.843506
4.7012
8.64705
12.6154
16.5558
20.4331
24.2161
27.8769
31.3911
34.7387
37.9147
40.9299
43.8136
46.5996
49.316
51.9778
54.5736
57.0694
59.4217
61.5874
63.5283
65.2297
66.6905
67.9198
68.9365
69.7589
70.4103
70.9185
71.3139
71.6256
71.8817
72.0959
72.2685
72.3831
72.4144
72.3361
72.1318
71.7978
71.3463
70.8055
70.2021
69.5563
68.8738
68.1465
67.3517
66.4679
65.4848
64.4018
63.2303
61.9871
60.6853
59.33
57.9285
56.4874
55.0244
53.5648
52.1289
50.7227
49.3363
47.9392
46.499
45.0011
43.4538
41.8912
40.3567
38.887
37.4881
36.1413
34.8139
33.4718
32.1007
30.7106
29.3271
27.9747
26.6746
25.4278
24.2299
23.0758
21.9631
20.8984
19.8836
18.9098
17.9534
16.9759
15.9359
14.799
13.5471
12.1752
10.6951
9.12806
7.50105
5.84816
4.21146
2.63351
1.14693
-0.238317
-1.53984
-2.81315
-4.12748
-5.55033
-7.11989
-8.82055
-10.593
-12.3475
-14.0001
-15.4995
-16.8536
-18.1146
-19.3598
-20.6574
-22.0372
-23.488
-24.9768
-26.4721
-27.9713
-29.5033
-31.1192
-32.8526
-34.7041
-36.6268
-38.5343
-40.3336
-41.9759
-43.4652
-44.8648
-46.2806
-47.8035
-49.471
-51.2466
-53.03
-54.7017
-56.1725
-57.428
-58.5454
-59.6589
-60.9133
-62.406
-64.152
-66.0824
-68.0759
-70.0088
-71.7963
-73.4129
-74.8882
-76.2737
-77.617
-78.9389
-80.2259
-81.4399
-82.5348
-83.4632
-84.173
-84.6085
-84.7183
-84.4443
-83.7412
-82.5857
-80.9789
-78.945
-76.5271
-73.7823
-70.7723
-67.5567
-64.1872
-60.7062
-57.1342
-53.4838
-49.759
-45.9713
-42.14
-38.3027
-34.5115
-30.8141
-27.2453
-23.817
-20.5139
-17.3051
-14.1529
-11.0292
-7.93028
-4.87316
-1.89129
0.980664
3.7213
6.32899
8.82267
11.2316
13.5895
15.9141
18.2066
20.4475
22.6054
24.6511
26.5658
28.3475
30.0099
31.5824
33.0878
34.5418
35.9463
37.2977
38.5823
39.7859
40.8969
41.9067
42.8016
43.5656
44.1794
44.6256
44.8903
44.969
44.8726
44.6253
44.2574
43.8034
43.2945
42.75
42.1718
41.5598
40.9041
40.194
39.4236
38.5939
37.7123
36.7873
35.8259
34.8357
33.8267
32.8107
31.8002
30.806
29.843
28.912
28.0097
27.1263
26.2618
25.4253
24.6402
23.9324
23.3287
22.837
22.4392
22.0965
21.7493
21.3358
20.8142
20.1708
19.4297
18.6451
17.8869
17.2068
16.6209
16.0963
15.5625
14.9379
14.1711
13.2634
12.2752
11.3068
10.4602
9.79409
9.30802
8.94982
8.63051
8.27006
7.81705
7.26526
6.63877
5.97887
5.31972
4.68691
4.08744
3.51421
2.95553
2.38614
1.7768
1.0883
0.288464
-0.644522
-1.71295
-2.89905
-4.16656
-5.47111
-6.77662
-8.05304
-9.27951
-10.4459
-11.5497
-12.5999
-13.6104
-14.5933
-15.5573
-16.497
-17.3926
-18.2165
-18.9449
-19.576
-20.1362
-20.6762
-21.2604
-21.9453
-22.7636
-23.7162
-24.7727
-25.8859
-27.0164
-28.134
-29.2332
-30.3166
-31.3885
-32.4446
-33.467
-34.4205
-35.2657
-35.9627
-36.4678
-36.7362
-36.7225
-36.3767
-35.6548
-34.5214
-32.957
-30.966
-28.5703
-25.8112
-22.7395
-19.4103
-15.8814
-12.204
-8.41822
-4.55365
-0.620902
3.3836
7.47382
11.6573
15.9303
20.2693
24.6433
29.0158
33.3665
37.6928
42.0044
46.3014
50.5677
54.756
58.7937
62.6042
66.1352
69.3746
72.3616
75.1721
77.8928
80.5905
83.2866
85.9572
88.5337
90.9385
93.1116
95.0261
96.6961
98.1674
99.4943
100.721
101.864
102.919
103.863
104.672
105.333
105.844
106.216
106.463
106.589
106.592
106.468
106.209
105.813
105.283
104.625
103.849
102.958
101.957
100.851
99.6523
98.3816
97.0674
95.7485
94.4555
93.2161
92.0399
90.916
89.8155
88.6991
87.5226
86.2518
84.874
83.4038
81.8758
80.3362
78.8331
77.3969
76.0351
74.7342
73.4693
72.2159
70.9648
69.7099
68.4548
67.1938
65.9066
64.5578
63.1058
61.5199
59.7983
57.9718
56.1022
54.2633
52.5213
50.9076
49.4182
48.0138
46.6365
45.2337
43.7735
42.2473
40.6645
39.0399
37.3823
35.6882
33.9533
32.1786
30.3779
28.5764
26.8031
25.0805
23.409
21.7704
20.1301
18.4533
16.7189
14.924
13.0834
11.2241
9.36451
7.51825
5.6803
3.84213
1.99563
0.142184
-1.70601
-3.53083
-5.31191
-7.03976
-8.71358
-10.3474
-11.9637
-13.5873
-15.2446
-16.9543
-18.7357
-20.5983
-22.547
-24.5778
-26.6779
-28.822
-30.9778
-33.1123
-35.1973
-37.2202
-39.1851
-41.1045
-42.9984
-44.8832
-46.7569
-48.6073
-50.4075
-52.1276
-53.7379
-55.2144
-56.5518
-57.7594
-58.8682
-59.9196
-60.9636
-62.0422
-63.1754
-64.3453
-65.4911
-66.5207
-67.3267
-67.8098
-67.9024
-67.5838
-66.8743
-65.8249
-64.4982
-62.9505
-61.2156
-59.3143
-57.2568
-55.0573
-52.7369
-50.3324
-47.8854
-45.4246
-42.9701
-40.5262
-38.0913
-35.6648
-33.2611
-30.9068
-28.6361
-26.4772
-24.4362
-22.5026
-20.6498
-18.8508
-17.0878
-15.3638
-13.6967
-12.1069
-10.6041
-9.18591
-7.83411
-6.52978
-5.26851
-4.06595
-2.95538
-1.97015
-1.1333
-0.442767
0.131186
0.636315
1.11637
1.59525
2.06712
2.48552
2.78053
2.87568
2.71231
2.27529
1.60123
0.771345
-0.112975
-0.95608
-1.70341
-2.35266
-2.95485
-3.58708
-4.32672
-5.21817
-6.26125
-7.41533
-8.62155
-9.82409
-11.0023
-12.1603
-13.3327
-14.5599
-15.8651
-17.2505
-18.6972
-20.1693
-21.6234
-23.0199
-24.3329
-25.5511
-26.6786
-27.728
-28.7158
-29.6488
-30.5161
-31.298
-31.9785
-32.5689
-33.1204
-33.7259
-34.4936
-35.5191
-36.8356
-38.4022
-40.1071
-41.8101
-43.3916
-44.7865
-46.013
-47.1551
-48.3159
-49.5886
-51.0173
-52.5875
-54.2516
-55.948
-57.6282
-59.2662
-60.8609
-62.4289
-63.9874
-65.5417
-67.0826
-68.5861
-70.0179
-71.3413
-72.5358
-73.6033
-74.5784
-75.5192
-76.4931
-77.5572
-78.7452
-80.0471
-81.4207
-82.804
-84.1395
-85.3894
-86.5444
-87.6316
-88.7052
-89.8208
-91.0289
-92.3444
-93.7502
-95.1942
-96.6007
-97.8965
-99.0358
-100.006
-100.835
-101.581
-102.305
-103.056
-103.859
-104.712
-105.602
-106.519
-107.457
-108.416
-109.396
-110.384
-111.352
-112.269
-113.099
-113.833
-114.478
-115.059
-115.604
-116.134
-116.655
-117.156
-117.617
-118.024
-118.364
-118.646
-118.885
-119.108
-119.336
-119.588
-119.872
-120.181
-120.488
-120.749
-120.908
-120.889
-120.619
-120.031
-119.075
-117.725
-115.98
-113.861
-111.401
-108.64
-105.62
-102.387
-98.9858
-95.4621
-91.8614
-88.2297
-84.6048
-81.0227
-77.5056
-74.0661
-70.7078
-67.417
-64.1743
-60.9597
-57.7606
-54.5681
-51.3882
-48.2389
-45.1412
-42.1146
-39.1781
-36.34
-33.5999
-30.9519
-28.3811
-25.8679
-23.3972
-20.9598
-18.5569
-16.2023
-13.925
-11.7585
-9.73119
-7.85274
-6.11229
-4.4771
-2.90568
-1.35881
0.180881
1.70905
3.20062
4.61747
5.92913
7.11661
8.17518
9.11222
9.938
10.6588
11.2741
11.7807
12.1815
12.488
12.723
12.9071
13.0576
13.177
13.2578
13.2824
13.2354
13.1167
12.93
12.6787
12.3611
11.9613
11.4554
10.8292
10.0927
9.28229
8.46312
7.70212
7.05479
6.54117
6.14745
5.84187
5.5906
5.37541
5.20472
5.10171
5.08765
5.16146
5.29115
5.41929
5.482
5.42312
5.2152
4.86713
4.41246
3.89866
3.37009
2.85556
2.36852
1.90528
1.45708
1.01719
0.577457
0.137716
-0.300184
-0.733873
-1.16395
-1.58949
-2.01596
-2.44665
-2.89458
-3.37422
-3.90696
-4.51208
-5.1992
-5.96429
-6.78463
-7.62328
-8.44488
-9.22549
-9.95914
-10.6623
-11.3685
-12.1133
-12.9213
-13.7984
-14.7338
-15.7038
-16.683
-17.6533
-18.605
-19.5415
-20.4666
-21.3879
-22.308
-23.2254
-24.1398
-25.0535
-25.976
-26.9181
-27.8844
-28.8694
-29.8504
-30.7916
-31.6457
-32.3815
-32.9961
-33.5216
-34.0251
-34.5939
-35.2983
-36.17
-37.1865
-38.2779
-39.3515
-40.3266
-41.1553
-41.8421
-42.4237
-42.9533
-43.4731
-44.0019
-44.5365
-45.0571
-45.5495
-46.0055
-46.4251
-46.8141
-47.1786
-47.5166
-47.8271
-48.1122
-48.3802
-48.6405
-48.8973
-49.1392
-49.3369
-49.4376
-49.3814
-49.103
-48.5575
-47.7145
-46.576
-45.1641
-43.5188
-41.6821
-39.6959
-37.5778
-35.3273
-32.9256
-30.3513
-27.5961
-24.6737
-21.6242
-18.5022
-15.3602
-12.2296
-9.12081
-6.0273
-2.94578
0.117584
3.13435
6.06357
8.87325
11.5554
14.1304
16.6379
19.1196
21.5925
24.0378
26.4081
28.6402
30.6856
32.5215
34.1621
35.6438
37.0134
38.3101
39.5668
40.8028
42.0368
43.2847
44.5589
45.8587
47.1663
48.4439
49.6487
50.7419
51.7015
52.5285
53.2387
53.8523
54.379
54.8177
55.153
55.3641
55.4309
55.3459
55.1113
54.739
54.2437
53.6424
52.9508
52.1823
51.3518
50.4786
49.5845
48.693
47.8232
46.9819
46.1594
45.3294
44.4458
43.4543
42.3021
40.9558
39.4068
37.6904
35.8754
34.0553
32.3276
30.7668
29.4091
28.2423
27.2203
26.2736
25.3394
24.3749
23.3738
22.3483
21.323
20.3123
19.3079
18.2767
17.1709
15.9429
14.5655
13.0409
11.4006
9.69769
7.9889
6.32273
4.72735
3.19959
1.71875
0.249661
-1.2406
-2.77503
-4.3475
-5.93251
-7.48903
-8.97614
-10.368
-11.6578
-12.8655
-14.0255
-15.1749
-16.3451
-17.5578
-18.8194
-20.1323
-21.4931
-22.8984
-24.3428
-25.8191
-27.3121
-28.8088
-30.2923
-31.757
-33.2098
-34.6616
-36.1343
-37.6413
-39.185
-40.7578
-42.3455
-43.9336
-45.5173
-47.0947
-48.6617
-50.2067
-51.7077
-53.1375
-54.4733
-55.7108
-56.8697
-57.9888
-59.1128
-60.2848
-61.5308
-62.8622
-64.2761
-65.7619
-67.3041
-68.8826
-70.4695
-72.0235
-73.5043
-74.8741
-76.1149
-77.2339
-78.2589
-79.2338
-80.1966
-81.1663
-82.1405
-83.1057
-84.0435
-84.9536
-85.8488
-86.761
-87.7257
-88.7649
-89.8798
-91.0505
-92.2398
-93.4087
-94.5292
-95.5852
-96.5796
-97.526
-98.4432
-99.3457
-100.244
-101.144
-102.046
-102.947
-103.836
-104.702
-105.531
-106.304
-107.01
-107.64
-108.197
-108.685
-109.112
-109.485
-109.812
-110.097
-110.35
-110.567
-110.743
-110.86
-110.877
-110.745
-110.407
-109.811
-108.933
-107.775
-106.366
-104.759
-103.014
-101.181
-99.2916
-97.3535
-95.3591
-93.2908
-91.1416
-88.9191
-86.6513
-84.3872
-82.1823
-80.0755
-78.0882
-76.2099
-74.4063
-72.6327
-70.8489
-69.0363
-67.2082
-65.4017
-63.6631
-62.0384
-60.5576
-59.2353
-58.0663
-57.0327
-56.1081
-55.2603
-54.4499
-53.6381
-52.791
-51.8915
-50.9391
-49.9464
-48.9327
-47.918
-46.9116
-45.9258
-44.9762
-44.0907
-43.3138
-42.6896
-42.2439
-41.9804
-41.874
-41.8857
-41.9786
-42.1375
-42.3776
-42.7301
-43.2213
-43.8506
-44.5778
-45.3254
-46.0023
-46.5227
-46.8326
-46.9257
-46.8409
-46.6527
-46.4515
-46.3337
-46.3814
-46.6493
-47.1545
-47.8786
-48.7683
-49.7437
-50.7252
-51.6437
-52.4625
-53.184
-53.834
-54.4525
-55.0782
-55.7293
-56.4011
-57.0722
-57.7192
-58.3272
-58.8916
-59.4199
-59.9217
-60.4014
-60.8569
-61.2846
-61.6874
-62.0839
-62.5067
-62.9938
-63.5774
-64.2716
-65.0688
-65.9391
-66.8393
-67.7269
-68.5671
-69.331
-70.0029
-70.5776
-71.0549
-71.4486
-71.7842
-72.093
-72.4076
-72.7589
-73.1602
-73.6101
-74.0955
-74.6015
-75.1198
-75.6524
-76.2102
-76.8054
-77.4418
-78.1136
-78.81
-79.5249
-80.2629
-81.0411
-81.8828
-82.7988
-83.7774
-84.7834
-85.7716
-86.6965
-87.5419
-88.3205
-89.0672
-89.823
-90.6098
-91.4219
-92.2283
-92.9902
-93.6754
-94.2759
-94.8086
-95.3117
-95.822
-96.3718
-96.9783
-97.6394
-98.3456
-99.0805
-99.8263
-100.571
-101.309
-102.048
-102.803
-103.592
-104.433
-105.337
-106.285
-107.249
-108.185
-109.051
-109.81
-110.45
-110.979
-111.424
-111.813
-112.18
-112.549
-112.935
-113.339
-113.751
-114.146
-114.485
-114.725
-114.813
-114.706
-114.37
-113.79
-112.975
-111.953
-110.77
-109.478
-108.135
-106.787
-105.474
-104.221
-103.04
-101.921
-100.84
-99.7674
-98.6666
-97.5113
-96.2872
-94.9887
-93.6166
-92.1657
-90.6192
-88.958
-87.1659
-85.248
-83.2431
-81.2236
-79.2848
-77.5243
-76.0183
-74.7981
-73.8485
-73.1179
-72.5379
-72.0395
-71.5735
-71.1202
-70.6709
-70.2264
-69.779
-69.307
-68.7736
-68.1439
-67.3866
-66.4978
-65.5081
-64.4698
-63.4555
-62.5381
-61.7757
-61.2077
-60.8543
-60.7257
-60.8261
-61.1575
-61.7176
-62.4833
-63.4109
-64.4244
-65.4311
-66.3333
-67.0528
-67.5457
-67.8157
-67.9049
-67.8751
-67.7924
-67.7074
-67.6495
-67.6342
-67.6669
-67.7516
-67.894
-68.0968
-68.3521
-68.6386
-68.9321
-69.2029
-69.4302
-69.6089
-69.7395
-69.8253
-69.866
-69.8518
-69.766
-69.5927
-69.3299
-68.9894
-68.6019
-68.2068
-67.8425
-67.5359
-67.2964
-67.1132
-66.9723
-66.8584
-66.7662
-66.7047
-66.6951
-66.755
-66.8924
-67.0951
-67.3304
-67.5575
-67.7337
-67.84
-67.8802
-67.8849
-67.8904
-67.9329
-68.0316
-68.1848
-68.3776
-68.593
-68.8148
-69.0354
-69.252
-69.4612
-69.6548
-69.8227
-69.96
-70.0654
-70.1477
-70.224
-70.3168
-70.4517
-70.6533
-70.9348
-71.3015
-71.745
-72.2338
-72.7238
-73.1725
-73.5434
-73.8271
-74.0402
-74.2244
-74.4254
-74.6697
-74.9554
-75.248
-75.4888
-75.6243
-75.6205
-75.4782
-75.2311
-74.9384
-74.664
-74.4658
-74.3823
-74.44
-74.6493
-75.0018
-75.4741
-76.0219
-76.582
-77.0787
-77.4446
-77.628
-77.6204
-77.4456
-77.1618
-76.8304
-76.508
-76.2163
-75.9516
-75.6914
-75.4116
-75.1004
-74.7678
-74.4383
-74.131
-73.8446
-73.5518
-73.1911
-72.6891
-71.9738
-70.9946
-69.7327
-68.2003
-66.4303
-64.4571
-62.3055
-59.9784
-57.4567
-54.7114
-51.7137
-48.4598
-44.971
-41.2955
-37.5011
-33.6468
-29.7834
-25.9343
-22.1018
-18.277
-14.4583
-10.6502
-6.87461
-3.15823
0.473096
4.00709
7.44561
10.8066
14.1135
17.3869
20.6401
23.8745
27.0749
30.2193
33.28
36.2342
39.0741
41.8094
44.4626
47.0727
49.6776
52.2971
54.924
57.5141
59.9944
62.2842
64.3249
66.0973
67.646
69.0618
70.4578
71.9256
73.5099
75.186
76.8746
78.4665
79.86
80.9887
81.8397
82.4498
82.8856
83.2273
83.546
83.8954
84.3038
84.776
85.289
85.8038
86.2668
86.6273
86.8555
86.9569
86.9735
86.9775
87.0424
87.2244
87.5445
87.9751
88.4553
88.9156
89.2958
89.5695
89.7458
89.8635
89.9761
90.126
90.333
90.5829
90.8362
91.0411
91.1495
91.131
90.9755
90.7036
90.352
89.9641
89.5861
89.2492
88.9681
88.7394
88.5453
88.3586
88.1498
87.8901
87.5528
87.1143
86.5563
85.872
85.0621
84.1488
83.1708
82.176
81.2166
80.3338
79.5419
78.8309
78.165
77.4968
76.7724
75.9583
75.0459
74.0508
73.0062
71.9572
70.9449
69.9909
69.0898
68.22
67.3338
66.3779
65.3114
64.1132
62.7911
61.3741
59.9029
58.4182
56.938
55.4654
53.9923
52.5076
51.0097
49.5112
48.0301
46.5888
45.1997
43.8663
42.5942
41.3943
40.2784
39.2554
38.3256
37.4553
36.5766
35.6079
34.478
33.1461
31.6274
29.9856
28.3161
26.7016
25.1917
23.7931
22.4732
21.1816
19.8755
18.5313
17.1496
15.7434
14.3374
12.966
11.66
10.4517
9.36301
8.39556
7.52355
6.69368
5.84641
4.93429
3.9405
2.887
1.82949
0.831521
-0.0510072
-0.789111
-1.36696
-1.78229
-2.02688
-2.07651
-1.90023
-1.46806
-0.759508
0.232898
1.50772
3.07137
4.93894
7.1246
9.63082
12.429
15.4529
18.6034
21.7723
24.8642
27.8211
30.6307
33.3222
35.9485
38.5662
41.2212
43.9339
46.7019
49.5037
52.306
55.0765
57.7964
60.4499
63.0314
65.5346
67.9444
70.2336
72.3625
74.2933
75.9954
77.4551
78.6836
79.7219
80.6211
81.4286
82.1824
82.8903
83.5383
84.0912
84.5127
84.7801
84.8918
84.8776
84.7814
84.6532
84.5247
84.3996
84.2455
84.0053
83.6126
83.0155
82.1976
81.1812
80.0184
78.7778
77.5293
76.326
75.1933
74.1315
73.1229
72.1306
71.1106
70.0248
68.8401
67.5429
66.1317
64.6219
63.0345
61.3939
59.7211
58.0365
56.3576
54.7069
53.1102
51.5971
50.1943
48.9188
47.7766
46.756
45.8316
44.9788
44.1738
43.4032
42.6625
41.9479
41.2538
40.5684
39.8706
39.1408
38.3676
37.5611
36.741
35.9343
35.1645
34.4263
33.691
32.9093
32.0266
31.0074
29.8565
28.6199
27.3695
26.1801
25.1037
24.1483
23.2816
22.4474
21.5867
20.6663
19.6797
18.6459
17.5988
16.5635
15.5559
14.5795
13.6284
12.6968
11.7807
10.8742
9.96918
9.05161
8.1124
7.14509
6.16087
5.18678
4.2551
3.39535
2.61626
1.89312
1.1713
0.380805
-0.54546
-1.64782
-2.91591
-4.29321
-5.68468
-6.98545
-8.11452
-9.03914
-9.77937
-10.4024
-10.9891
-11.6015
-12.2567
-12.9285
-13.5631
-14.1214
-14.5934
-15.0157
-15.4506
-15.9584
-16.5592
-17.2277
-17.8981
-18.4924
-18.9501
-19.251
-19.4147
-19.4874
-19.5207
-19.5513
-19.5885
-19.6233
-19.6192
-19.526
-19.2869
-18.8369
-18.1119
-17.0599
-15.6375
-13.8218
-11.6047
-8.98725
-5.97184
-2.55817
1.25199
5.44834
10.0034
14.8701
19.9857
25.2764
30.6731
36.121
41.5772
47.0151
52.4146
57.7485
62.9843
68.0851
73.0209
77.7808
82.3832
86.8809
91.3368
95.809
100.318
104.831
109.271
113.539
117.549
121.26
124.692
127.919
131.031
134.103
137.169
140.215
143.2
146.081
148.842
151.501
154.094
156.64
159.119
161.46
163.553
165.287
166.593
167.465
167.961
168.188
168.253
168.238
168.189
168.122
168.038
167.949
167.877
167.848
167.875
167.953
168.056
168.147
168.194
168.182
168.113
168.003
167.865
167.712
167.545
167.365
167.17
166.966
166.752
166.533
166.307
166.068
165.815
165.542
165.242
164.902
164.502
164.015
163.421
162.711
161.89
160.984
160.026
159.052
158.091
157.167
156.294
155.476
154.7
153.939
153.155
152.294
151.311
150.174
148.877
147.437
145.893
144.284
142.646
141.003
139.365
137.739
136.127
134.532
132.944
131.341
129.68
127.914
126.004
123.938
121.743
119.472
117.196
114.967
112.802
110.674
108.528
106.304
103.967
101.524
99.0229
96.5328
94.1138
91.8017
89.5924
87.4504
85.3293
83.1927
81.0197
78.8084
76.5678
74.3069
72.0307
69.7394
67.4357
65.1252
62.8156
60.5074
58.1964
55.8579
53.4649
50.9946
48.4386
45.8176
43.1735
40.563
38.0361
35.6262
33.343
31.17
29.079
27.0418
25.0347
23.0467
21.0771
19.1355
17.2454
15.4501
13.8231
12.4694
11.5132
11.0786
11.2669
12.1284
13.6565
15.7939
18.4499
21.5287
24.9487
28.6529
32.5986
36.7559
41.0891
45.5455
50.058
54.5542
58.9647
63.2332
67.3321
71.2574
75.0312
78.6857
82.2503
85.7352
89.1313
92.4104
95.5402
98.5065
101.319
103.999
106.573
109.04
111.366
113.486
115.334
116.875
118.121
119.141
120.032
120.884
121.748
122.616
123.437
124.14
124.659
124.965
125.072
125.021
124.858
124.624
124.334
123.984
123.556
123.025
122.371
121.574
120.616
119.481
118.157
116.642
114.942
113.083
111.103
109.038
106.916
104.753
102.544
100.274
97.9262
95.4971
92.9884
90.4142
87.7875
85.117
82.4124
79.6783
76.932
74.2007
71.5158
68.9042
66.3782
63.9332
61.5486
59.2071
56.9006
54.6476
52.4768
50.4228
48.4975
46.6809
44.9218
43.1475
41.286
39.2872
37.1421
34.8825
32.5648
30.2529
27.996
25.8132
23.6852
21.5651
19.3951
17.1313
14.7619
12.3135
9.84787
7.44207
5.15827
3.02703
1.0354
-0.869088
-2.75811
-4.69497
-6.72075
-8.83866
-11.0215
-13.2314
-15.4277
-17.5889
-19.7125
-21.8038
-23.871
-25.9116
-27.9163
-29.8668
-31.7538
-33.5879
-35.3954
-37.2166
-39.0899
-41.0409
-43.0699
-45.1517
-47.2417
-49.2881
-51.2471
-53.0883
-54.8017
-56.3998
-57.9017
-59.3341
-60.7249
-62.0926
-63.4466
-64.7911
-66.1236
-67.4412
-68.7468
-70.0417
-71.3376
-72.6429
-73.9571
-75.2717
-76.5648
-77.8112
-78.9886
-80.0861
-81.1146
-82.0974
-83.0644
-84.0372
-85.0109
-85.9588
-86.8272
-87.5535
-88.0736
-88.3372
-88.3035
-87.9379
-87.2031
-86.0464
-84.4109
-82.2408
-79.498
-76.1753
-72.2967
-67.9134
-63.0877
-57.8801
-52.3469
-46.5437
-40.5297
-34.3733
-28.1525
-21.9388
-15.7887
-9.73566
-3.78448
2.072
7.84269
13.5242
19.097
24.5305
29.7891
34.8482
39.6997
44.3591
48.8563
53.2296
57.515
61.7365
65.8999
69.9884
73.9745
77.8261
81.5244
85.0696
88.4771
91.7773
94.9946
98.135
101.183
104.103
106.855
109.404
111.745
113.888
115.869
117.732
119.512
121.226
122.868
124.407
125.797
126.991
127.954
128.671
129.153
129.42
129.501
129.422
129.206
128.873
128.447
127.966
127.462
126.962
126.477
125.993
125.484
124.925
124.315
123.682
123.077
122.552
122.142
121.841
121.604
121.376
121.105
120.776
120.406
120.045
119.743
119.534
119.422
119.386
119.391
119.405
119.413
119.411
119.408
119.407
119.402
119.368
119.275
119.088
118.782
118.357
117.83
117.23
116.601
115.985
115.415
114.905
114.438
113.981
113.475
112.858
112.076
111.106
109.953
108.655
107.264
105.831
104.395
102.966
101.545
100.12
98.6893
97.2692
95.8846
94.5576
93.2922
92.0596
90.7972
89.4342
87.9146
86.2198
84.3854
82.4819
80.6056
78.8364
77.2187
75.7501
74.3882
73.062
71.7021
70.2577
68.7055
67.0599
65.3619
63.6665
62.0218
60.4598
58.9797
57.5546
56.1353
54.6763
53.1447
51.5324
49.8572
48.1477
46.43
44.7196
43.022
41.3386
39.6808
38.0715
36.5392
35.1071
33.7744
32.5172
31.2873
30.0326
28.7159
27.3222
25.8591
24.3544
22.8448
21.3705
19.981
18.7409
17.7357
17.0669
16.8478
17.1782
18.1339
19.7533
22.0394
24.9653
28.4946
32.5928
37.2372
42.4128
48.1031
54.2764
60.8697
67.7874
74.9151
82.1378
89.3637
96.5374
103.643
110.692
117.701
124.675
131.598
138.437
145.149
151.696
158.045
164.164
170.031
175.613
180.89
185.858
190.537
194.978
199.24
203.375
207.407
211.322
215.07
218.592
221.84
224.801
227.497
229.98
232.312
234.551
236.736
238.883
240.991
243.043
245.015
246.872
248.571
250.069
251.314
252.267
252.894
253.18
253.125
252.748
252.077
251.149
249.994
248.628
247.062
245.296
243.324
241.149
238.787
236.262
233.608
230.86
228.05
225.199
222.326
219.445
216.569
213.717
210.903
208.143
205.454
202.856
200.37
198.016
195.809
193.742
191.781
189.871
187.947
185.961
183.895
181.781
179.678
177.652
175.747
173.969
172.276
170.601
168.877
167.064
165.15
163.146
161.073
158.937
156.724
154.409
151.963
149.376
146.661
143.848
140.977
138.083
135.195
132.334
129.511
126.74
124.026
121.358
118.709
116.031
113.268
110.371
107.318
104.12
100.827
97.5059
94.2216
91.0178
87.904
84.8601
81.8462
78.8235
75.7701
72.6885
69.5995
66.5305
63.4994
60.5041
57.5182
54.5092
51.4518
48.3448
45.2198
42.1321
39.146
36.3026
33.6152
31.0616
28.5878
26.135
23.6586
21.1341
18.5643
15.9714
13.3858
10.8306
8.31746
5.84153
3.38742
0.932483
-1.54288
-4.05268
-6.59266
-9.15172
-11.7135
-14.267
-16.8185
-19.3952
-22.0321
-24.7707
-27.6284
-30.5906
-33.6141
-36.6348
-39.5875
-42.4285
-45.1388
-47.7168
-50.1552
-52.4207
-54.436
-56.0869
-57.2414
-57.7804
-57.6253
-56.7565
-55.2079
-53.0499
-50.3665
-47.2362
-43.7199
-39.8689
-35.7268
-31.339
-26.761
-22.0456
-17.2375
-12.375
-7.47693
-2.5614
2.3502
7.22101
12.0013
16.6314
21.0586
25.2525
29.2122
32.9611
36.5351
39.9676
43.2748
46.4499
49.4722
52.3222
54.9897
57.4834
59.8239
62.0369
64.1369
66.1174
67.9574
69.6245
71.0977
72.3816
73.5052
74.5155
75.4659
76.3879
77.272
78.0812
78.7476
79.2026
79.3975
79.3203
78.9964
78.4727
77.8005
77.0116
76.1031
75.0414
73.7812
72.2894
70.5664
68.647
66.5932
64.4703
62.3198
60.1527
57.9528
55.6927
53.3501
50.9263
48.4396
45.9219
43.3999
40.8868
38.3843
35.8883
33.3966
30.9171
28.4763
26.1026
23.8266
21.6649
19.6204
17.6791
15.8153
14.0035
12.2256
10.4706
8.73528
7.01764
5.31236
3.59884
1.8467
0.0278348
-1.87444
-3.8557
-5.87989
-7.89216
-9.83796
-11.6837
-13.4295
-15.1024
-16.7525
-18.4258
-20.1469
-21.9185
-23.7296
-25.5659
-27.4264
-29.316
-31.2505
-33.2296
-35.2371
-37.2324
-39.1681
-41.0091
-42.7519
-44.4252
-46.0946
-47.8304
-49.685
-51.6663
-53.7424
-55.8443
-57.8991
-59.8506
-61.6861
-63.4239
-65.1095
-66.7893
-68.4932
-70.227
-71.9731
-73.7094
-75.4207
-77.0996
-78.7529
-80.3884
-82.005
-83.5964
-85.1489
-86.66
-88.1353
-89.5904
-91.0429
-92.4996
-93.9537
-95.3884
-96.7848
-98.1356
-99.4455
-100.72
-101.954
-103.124
-104.19
-105.117
-105.897
-106.559
-107.17
-107.809
-108.533
-109.353
-110.231
-111.097
-111.888
-112.58
-113.196
-113.798
-114.452
-115.194
-116.016
-116.862
-117.655
-118.328
-118.844
-119.206
-119.445
-119.609
-119.743
-119.882
-120.055
-120.286
-120.594
-120.988
-121.45
-121.922
-122.301
-122.448
-122.207
-121.442
-120.056
-118.011
-115.318
-112.02
-108.167
-103.794
-98.9148
-93.5317
-87.6561
-81.3227
-74.6007
-67.5807
-60.3604
-53.0174
-45.5971
-38.115
-30.5712
-22.9649
-15.3158
-7.668
-0.0826037
7.37618
14.6548
21.7224
28.5681
35.1996
41.6317
47.8773
53.9391
59.8093
65.4669
70.8895
76.0539
80.9483
85.5791
89.9691
94.1577
98.1904
102.112
105.955
109.739
113.468
117.136
120.72
124.19
127.509
130.627
133.489
136.05
138.278
140.162
141.724
143.002
144.037
144.863
145.491
145.914
146.115
146.079
145.806
145.313
144.633
143.805
142.862
141.832
140.735
139.577
138.368
137.106
135.792
134.426
133.008
131.54
130.025
128.47
126.888
125.297
123.72
122.189
120.736
119.391
118.166
117.062
116.054
115.1
114.144
113.136
112.04
110.848
109.569
108.235
106.884
105.545
104.235
102.959
101.71
100.477
99.2474
98.0083
96.7456
95.4504
94.1106
92.7178
91.2582
89.714
88.0638
86.286
84.3642
82.3005
80.1235
77.8739
75.6111
73.3878
71.239
69.1717
67.1578
65.1449
63.0681
60.8709
58.5109
55.9719
53.2759
50.4656
47.5969
44.7339
41.9272
39.2058
36.5738
34.0099
31.4815
28.9583
26.4238
23.8868
21.3738
18.9231
16.5668
14.319
12.1699
10.0934
8.05413
6.02441
3.98609
1.93942
-0.109423
-2.14648
-4.15816
-6.13784
-8.07685
-9.96951
-11.8167
-13.6319
-15.437
-17.2594
-19.1273
-21.0561
-23.0356
-25.0449
-27.0451
-29.0049
-30.9042
-32.7414
-34.5267
-36.2831
-38.0261
-39.7697
-41.5189
-43.2792
-45.0607
-46.8716
-48.7145
-50.584
-52.4603
-54.3173
-56.1309
-57.8943
-59.6151
-61.3203
-63.0412
-64.7962
-66.5822
-68.3778
-70.1458
-71.8548
-73.4851
-75.0358
-76.5254
-77.9769
-79.4142
-80.8496
-82.2911
-83.7326
-85.1684
-86.5857
-87.9707
-89.2949
-90.5229
-91.6062
-92.4897
-93.1161
-93.4289
-93.3725
-92.8895
-91.9211
-90.4089
-88.3011
-85.5657
-82.1953
-78.2174
-73.6883
-68.687
-63.3071
-57.6435
-51.7801
-45.7909
-39.7337
-33.6501
-27.5691
-21.5148
-15.5154
-9.60647
-3.82959
1.77507
7.16973
12.3343
17.258
21.9354
26.3546
30.4975
34.3372
37.8493
41.0167
43.8402
46.3328
48.5108
50.3907
51.9881
53.3254
54.4445
55.4013
56.2617
57.0825
57.8794
58.6286
59.2627
59.6972
59.8632
59.7415
59.3714
58.8419
58.2597
57.7129
57.2378
56.8105
56.3498
55.7519
54.9208
53.7997
52.3816
50.7077
48.8402
46.8421
44.7467
42.5561
40.2499
37.8007
35.1944
32.4471
29.5983
26.6932
23.7695
20.8484
17.9315
15.0026
12.0534
9.07465
6.06944
3.04631
0.0147073
-3.01393
-6.02708
-9.00916
-11.9508
-14.8457
-17.6963
-20.5163
-23.3201
-26.1145
-28.892
-31.6322
-34.3056
-36.8931
-39.387
-41.8045
-44.1779
-46.5411
-48.918
-51.3185
-53.7365
-56.1587
-58.5726
-60.9711
-63.3563
-65.7357
-68.1142
-70.4895
-72.8593
-75.2187
-77.5717
-79.9377
-82.3452
-84.827
-87.4038
-90.0854
-92.8456
-95.6403
-98.4183
-101.133
-103.754
-106.273
-108.694
-111.029
-113.285
-115.458
-117.537
-119.516
-121.39
-123.165
-124.852
-126.468
-128.03
-129.557
-131.073
-132.612
-134.213
-135.91
-137.715
-139.611
-141.543
-143.43
-145.19
-146.77
-148.162
-149.415
-150.63
-151.909
-153.339
-154.946
-156.695
-158.487
-160.206
-161.754
-163.081
-164.204
-165.199
-166.167
-167.199
-168.339
-169.574
-170.833
-172.017
-173.03
-173.814
-174.359
-174.714
-174.967
-175.22
-175.557
-176.021
-176.619
-177.323
-178.087
-178.869
-179.637
-180.381
-181.106
-181.818
-182.526
-183.243
-183.977
-184.735
-185.517
-186.313
-187.104
-187.859
-188.549
-189.157
-189.681
-190.146
-190.587
-191.038
-191.519
-192.027
-192.545
-193.041
-193.49
-193.872
-194.167
-194.345
-194.352
-194.112
-193.535
-192.535
-191.061
-189.107
-186.722
-183.994
-181.013
-177.86
-174.581
-171.174
-167.628
-163.927
-160.086
-156.158
-152.225
-148.38
-144.701
-141.226
-137.957
-134.853
-131.859
-128.924
-126.015
-123.125
-120.269
-117.473
-114.767
-112.176
-109.715
-107.395
-105.218
-103.178
-101.269
-99.472
-97.7711
-96.1539
-94.6233
-93.196
-91.9087
-90.8069
-89.9248
-89.2833
-88.8703
-88.6543
-88.592
-88.6524
-88.8244
-89.1183
-89.5553
-90.147
-90.876
-91.6969
-92.5439
-93.3561
-94.0983
-94.7787
-95.4418
-96.1542
-96.9735
-97.9329
-99.03
-100.222
-101.453
-102.666
-103.821
-104.899
-105.907
-106.875
-107.837
-108.823
-109.854
-110.917
-111.974
-112.965
-113.826
-114.506
-114.99
-115.296
-115.476
-115.601
-115.73
-115.907
-116.159
-116.493
-116.91
-117.418
-118.026
-118.731
-119.515
-120.343
-121.166
-121.934
-122.611
-123.192
-123.698
-124.158
-124.597
-125.023
-125.424
-125.774
-126.057
-126.284
-126.488
-126.723
-127.042
-127.481
-128.049
-128.733
-129.511
-130.365
-131.291
-132.297
-133.389
-134.566
-135.814
-137.104
-138.401
-139.664
-140.854
-141.935
-142.882
-143.686
-144.362
-144.955
-145.529
-146.148
-146.855
-147.66
-148.535
-149.425
-150.274
-151.042
-151.718
-152.315
-152.853
-153.35
-153.814
-154.256
-154.685
-155.127
-155.612
-156.172
-156.814
-157.52
-158.247
-158.95
-159.6
-160.198
-160.776
-161.378
-162.037
-162.752
-163.487
-164.177
-164.767
-165.229
-165.581
-165.886
-166.226
-166.67
-167.249
-167.947
-168.708
-169.456
-170.123
-170.67
-171.086
-171.391
-171.618
-171.807
-171.993
-172.204
-172.448
-172.7
-172.9
-172.957
-172.763
-172.215
-171.243
-169.828
-167.996
-165.794
-163.273
-160.46
-157.36
-153.969
-150.298
-146.378
-142.272
-138.053
-133.778
-129.477
-125.149
-120.777
-116.35
-111.88
-107.411
-103.003
-98.711
-94.5709
-90.5888
-86.7478
-83.0208
-79.3897
-75.8484
-72.404
-69.0726
-65.8588
-62.752
-59.7288
-56.758
-53.8083
-50.857
-47.9025
-44.9558
-42.0439
-39.2023
-36.4674
-33.8711
-31.4368
-29.1754
-27.0748
-25.1139
-23.2556
-21.461
-19.7002
-17.9616
-16.2518
-14.5973
-13.0319
-11.5848
-10.2687
-9.08389
-8.02164
-7.0786
-6.26285
-5.59491
-5.08748
-4.73177
-4.47887
-4.24556
-3.93057
-3.4585
-2.80147
-2.00168
-1.15041
-0.362991
0.270176
0.713867
0.993571
1.18207
1.35888
1.58091
1.85514
2.15363
2.42019
2.60823
2.6967
2.69986
2.6585
2.63097
2.66926
2.80702
3.05121
3.38353
3.76862
4.16725
4.55178
4.92016
5.29677
5.72823
6.26321
6.9347
7.73224
8.61064
9.48688
10.272
10.8883
11.2915
11.4772
11.4764
11.3416
11.1257
10.8796
10.6371
10.4226
10.2413
10.0895
9.95547
9.82812
9.70108
9.58121
9.47754
9.40396
9.35745
9.3184
9.24724
9.09651
8.82455
8.40749
7.84758
7.16839
6.41056
5.6155
4.81794
4.03905
3.28533
2.55388
1.82725
1.08059
0.292765
-0.550229
-1.44455
-2.3682
-3.27508
-4.1211
-4.87564
-5.53705
-6.13876
-6.73314
-7.37635
-8.10433
-8.92448
-9.81886
-10.762
-11.7427
-12.7665
-13.8572
-15.0435
-16.3395
-17.7355
-19.2026
-20.6961
-22.1691
-23.5838
-24.9097
-26.129
-27.221
-28.1705
-28.9692
-29.6219
-30.1478
-30.5909
-31.0058
-31.4452
-31.9521
-32.5481
-33.2341
-33.9874
-34.7717
-35.5488
-36.2798
-36.9317
-37.4768
-37.8986
-38.1901
-38.3532
-38.3935
-38.3198
-38.1286
-37.801
-37.2856
-36.5048
-35.3672
-33.7903
-31.7231
-29.1721
-26.2019
-22.9095
-19.4033
-15.7562
-11.9969
-8.10688
-4.04956
0.207161
4.66322
9.28136
13.9938
18.7272
23.4145
28.0076
32.4677
36.7645
40.8692
44.7532
48.3974
51.8004
54.9776
57.9621
60.7914
63.5003
66.1075
68.6195
71.033
73.3346
75.5126
77.5634
79.4864
81.2865
82.9705
84.5388
85.9874
87.3024
88.4728
89.494
90.3768
91.1509
91.858
92.5366
93.2089
93.8612
94.4496
94.9046
95.1538
95.1474
94.8711
94.3613
93.6885
92.9341
92.1712
91.4424
90.7515
90.0668
89.3358
88.5108
87.5582
86.4731
85.2729
83.9891
82.6507
81.274
79.8556
78.3818
76.8385
75.2221
73.5522
71.8668
70.215
68.642
67.1774
65.8312
64.5907
63.4322
62.3281
61.2541
60.1903
59.1211
58.0339
56.9128
55.7325
54.4722
53.1138
51.6485
50.0852
48.4512
46.7856
45.1312
43.5373
42.0335
40.6375
39.3483
38.1473
37.0012
35.8748
34.7305
33.5356
32.2689
30.9148
29.463
27.9118
26.2692
24.5539
22.7892
21.0038
19.2188
17.4388
15.6565
13.8516
12.0077
10.1175
8.18409
6.22395
4.25947
2.30336
0.364894
-1.54955
-3.43974
-5.29843
-7.10926
-8.86504
-10.56
-12.2017
-13.8157
-15.4378
-17.1029
-18.8371
-20.6515
-22.5367
-24.4728
-26.4343
-28.3967
-30.3413
-32.259
-34.1476
-36.0071
-37.84
-39.6462
-41.4219
-43.1556
-44.83
-46.4298
-47.9462
-49.3895
-50.7843
-52.1789
-53.6209
-55.152
-56.7916
-58.5297
-60.3309
-62.1444
-63.9116
-65.5876
-67.149
-68.5947
-69.9413
-71.2175
-72.4507
-73.6596
-74.8493
-76.0161
-77.1574
-78.2772
-79.3981
-80.5514
-81.7747
-83.0951
-84.5171
-86.0175
-87.5419
-89.0232
-90.394
-91.6021
-92.6211
-93.4395
-94.0547
-94.4567
-94.6174
-94.4869
-94.0125
-93.1462
-91.8652
-90.1766
-88.1156
-85.733
-83.073
-80.161
-77.001
-73.5843
-69.9073
-65.9947
-61.9135
-57.7713
-53.6958
-49.8053
-46.1761
-42.8265
-39.7134
-36.7498
-33.8361
-30.8896
-27.8655
-24.7681
-21.6436
-18.5641
-15.6034
-12.8212
-10.2508
-7.89083
-5.7137
-3.67816
-1.74333
0.118666
1.91624
3.64237
5.28103
6.82124
8.26455
9.62896
10.9457
12.2516
13.5762
14.9358
16.3256
17.7096
19.0341
20.2247
21.2123
21.9471
22.4184
22.6622
22.7528
22.7811
22.8213
22.904
23.0057
23.067
23.0145
22.7965
22.4057
21.8848
21.3034
20.7321
20.2214
19.7881
19.4186
19.0883
18.7747
18.467
18.1625
17.86
17.5464
17.199
16.7926
16.312
15.7593
15.1724
14.6012
14.1047
13.7236
13.472
13.3311
13.259
13.2051
13.127
12.9989
12.8203
12.6132
12.4037
12.2217
12.0875
12.0049
11.9569
11.9131
11.833
11.6764
11.408
11.0192
10.5216
9.95088
9.35738
8.79308
8.29291
7.86484
7.48444
7.09603
6.63234
6.03406
5.26364
4.33191
3.28628
2.20644
1.18075
0.281141
-0.463022
-1.06549
-1.58179
-2.08622
-2.64701
-3.30734
-4.0726
-4.91526
-5.79825
-6.68789
-7.57139
-8.46281
-9.39744
-10.4098
-11.5183
-12.7137
-13.9536
-15.1778
-16.3307
-17.3741
-18.3159
-19.1963
-20.0828
-21.0424
-22.1168
-23.3101
-24.5884
-25.8947
-27.1711
-28.3729
-29.4852
-30.5235
-31.5187
-32.5033
-33.4954
-34.4891
-35.4578
-36.3604
-37.1555
-37.8243
-38.3728
-38.8344
-39.2642
-39.7215
-40.2541
-40.8855
-41.6097
-42.3896
-43.1695
-43.8889
-44.4894
-44.937
-45.22
-45.353
-45.3641
-45.2802
-45.1071
-44.8205
-44.3513
-43.6042
-42.4703
-40.8649
-38.7368
-36.0882
-32.9664
-29.4425
-25.5985
-21.5064
-17.2223
-12.7935
-8.26251
-3.67323
0.938948
5.54467
10.1323
14.7037
19.2687
23.8278
28.3617
32.8331
37.1915
41.3936
45.4146
49.2511
52.9125
56.4101
59.7402
62.886
65.8235
68.5437
71.0544
73.3871
75.5763
77.6509
79.6144
81.4441
83.1084
84.5753
85.8335
86.8955
87.7955
88.5734
89.2636
89.8878
90.4515
90.9462
91.3524
91.6423
91.781
91.727
91.4425
90.9091
90.1268
89.1305
87.9696
86.7046
85.3783
84.0145
82.611
81.1477
79.6061
77.9709
76.249
74.4558
72.6161
70.7513
68.877
67.0016
65.1329
63.2857
61.4795
59.7435
58.1038
56.5674
55.1244
53.7442
52.3861
51.0092
49.5964
48.1479
46.6801
45.216
43.7741
42.3489
40.9233
39.4597
37.92
36.2719
34.5054
32.6351
30.6936
28.7289
26.7833
24.8925
23.0732
21.3264
19.6455
18.0223
16.4522
14.932
13.4579
12.0132
10.5688
9.08533
7.51349
5.82005
3.99305
2.04656
0.019734
-2.03832
-4.08747
-6.11284
-8.12659
-10.1627
-12.2597
-14.4419
-16.7089
-19.0389
-21.3949
-23.7453
-26.0761
-28.4032
-30.7536
-33.149
-35.5889
-38.0407
-40.4436
-42.734
-44.8749
-46.8735
-48.7853
-50.6936
-52.6822
-54.8059
-57.071
-59.4397
-61.8484
-64.2321
-66.544
-68.7701
-70.9201
-73.0206
-75.1029
-77.1914
-79.3016
-81.4335
-83.5815
-85.7283
-87.8524
-89.9221
-91.8981
-93.737
-95.4013
-96.8695
-98.1491
-99.2948
-100.392
-101.55
-102.867
-104.406
-106.17
-108.107
-110.125
-112.133
-114.05
-115.832
-117.457
-118.912
-120.161
-121.137
-121.747
-121.886
-121.471
-120.452
-118.822
-116.619
-113.902
-110.739
-107.196
-103.337
-99.2232
-94.918
-90.4955
-86.0411
-81.645
-77.3954
-73.3659
-69.6005
-66.1133
-62.8781
-59.8433
-56.9399
-54.0988
-51.2653
-48.4057
-45.507
-42.5788
-39.6482
-36.7535
-33.9358
-31.2259
-28.6451
-26.1904
-23.8428
-21.5701
-19.3371
-17.1254
-14.9322
-12.7691
-10.6621
-8.64608
-6.75147
-5.00766
-3.43503
-2.0506
-0.852529
0.180647
1.08768
1.92069
2.7206
3.50385
4.25323
4.92414
5.45956
5.81733
5.98899
5.99369
5.87162
5.65302
5.34755
4.93555
4.39099
3.70125
2.88497
1.99035
1.08628
0.22881
-0.560288
-1.3025
-2.05108
-2.86512
-3.78752
-4.81796
-5.92368
-7.05195
-8.15106
-9.19705
-10.1959
-11.1795
-12.1839
-13.2366
-14.3395
-15.4693
-16.5857
-17.6483
-18.6276
-19.5156
-20.3311
-21.1103
-21.9021
-22.7538
-23.7004
-24.7492
-25.8778
-27.0429
-28.1919
-29.2818
-30.3013
-31.2756
-32.2591
-33.3172
-34.4926
-35.788
-37.1616
-38.5406
-39.8468
-41.0264
-42.0742
-43.0229
-43.9337
-44.8704
-45.8839
-46.9999
-48.2263
-49.5569
-50.9829
-52.4912
-54.063
-55.6755
-57.2979
-58.8965
-60.4452
-61.931
-63.35
-64.7148
-66.0404
-67.3425
-68.6377
-69.9385
-71.2597
-72.6148
-74.014
-75.4596
-76.9367
-78.4152
-79.8528
-81.2056
-82.4453
-83.5703
-84.6048
-85.6007
-86.6125
-87.6856
-88.8386
-90.0503
-91.2792
-92.4727
-93.5911
-94.6225
-95.5906
-96.541
-97.5256
-98.5828
-99.7259
-100.939
-102.188
-103.435
-104.652
-105.824
-106.948
-108.029
-109.07
-110.064
-110.999
-111.858
-112.622
-113.275
-113.791
-114.134
-114.246
-114.059
-113.496
-112.494
-111.013
-109.057
-106.658
-103.875
-100.773
-97.407
-93.8042
-89.9753
-85.9251
-81.663
-77.2164
-72.6418
-68.0038
-63.3715
-58.798
-54.3139
-49.9261
-45.6313
-41.4236
-37.3094
-33.3058
-29.4369
-25.7176
-22.1473
-18.7022
-15.3415
-12.0255
-8.73237
-5.4657
-2.26296
0.821355
3.72973
6.41892
8.8782
11.1286
13.2136
15.1906
17.1175
19.0302
20.9401
22.8355
24.6828
26.4338
28.0459
29.4848
30.7333
31.7953
32.6951
33.4628
34.1321
34.7169
35.2118
35.5888
35.8116
35.8441
35.6708
35.3088
34.8014
34.2061
33.5824
32.9714
32.3953
31.8481
31.3144
30.7794
30.233
29.6814
29.1414
28.6401
28.2021
27.8458
27.5749
27.3787
27.233
27.0953
26.9227
26.6777
26.3371
25.9023
25.4005
24.8846
24.4079
24.0278
23.7829
23.6919
23.7485
23.9281
24.1988
24.519
24.8514
25.1626
25.4315
25.6496
25.8195
25.955
26.0808
26.2143
26.3701
26.5487
26.7453
26.9483
27.1471
27.3371
27.5251
27.7164
27.9074
28.0829
28.2041
28.2194
28.0826
27.7692
27.2922
26.6975
26.0626
25.4589
24.9314
24.4839
24.0791
23.6551
23.1504
22.5288
21.7902
20.9725
20.131
19.3251
18.5951
17.9601
17.4106
16.9192
16.4549
15.9887
15.5041
14.9964
14.4732
13.9468
13.4319
12.9363
12.4608
11.994
11.5248
11.042
10.5413
10.0249
9.50454
8.9908
8.49095
8.00676
7.53974
7.09333
6.67843
6.30985
6.00636
5.78633
5.65907
5.62962
5.71565
5.94608
6.37027
7.05947
8.09241
9.55125
11.5013
13.9921
17.0469
20.6759
24.8684
29.6067
34.8599
40.5854
46.7286
53.2292
60.0194
67.0296
74.1926
81.4431
88.7225
95.9778
103.162
110.237
117.183
123.985
130.644
137.165
143.557
149.828
155.978
162.006
167.905
173.669
179.286
184.745
190.029
195.115
199.978
204.599
208.975
213.118
217.068
220.878
224.598
228.27
231.912
235.508
239.023
242.403
245.588
248.528
251.186
253.544
255.612
257.418
258.997
260.389
261.62
262.693
263.592
264.282
264.736
264.934
264.882
264.606
264.135
263.497
262.701
261.742
260.611
259.3
257.822
256.206
254.493
252.72
250.915
249.092
247.253
245.402
243.543
241.69
239.853
238.04
236.247
234.459
232.657
230.827
228.966
227.082
225.187
223.292
221.397
219.502
217.604
215.708
213.837
212.016
210.277
208.63
207.063
205.539
204.011
202.437
200.795
199.082
197.313
195.507
193.674
191.803
189.871
187.854
185.739
183.532
181.266
178.987
176.742
174.564
172.463
170.411
168.359
166.251
164.034
161.689
159.224
156.68
154.115
151.583
149.117
146.723
144.382
142.062
139.728
137.36
134.953
132.512
130.048
127.576
125.105
122.641
120.194
117.781
115.423
113.145
110.967
108.9
106.935
105.05
103.214
101.396
99.5769
97.7494
95.9155
94.0815
92.2493
90.4078
88.5434
86.641
84.695
82.7123
80.7144
78.7276
76.7734
74.8615
72.9893
71.1456
69.3187
67.5055
65.7015
63.9009
62.096
60.2762
58.4361
56.5968
54.814
53.1879
51.8493
50.9417
50.5972
50.9138
51.9501
53.7148
56.178
59.287
62.9766
67.1769
71.8218
76.8536
82.219
87.8661
93.7493
99.817
106.012
112.277
118.558
124.801
130.97
137.036
142.981
148.787
154.439
159.923
165.227
170.356
175.332
180.182
184.941
189.628
194.24
198.747
203.104
207.261
211.176
214.822
218.2
221.323
224.217
226.914
229.441
231.826
234.084
236.23
238.259
240.161
241.922
243.523
244.956
246.217
247.307
248.22
248.942
249.44
249.676
249.616
249.245
248.583
247.669
246.559
245.302
243.921
242.412
240.757
238.931
236.929
234.782
232.547
230.293
228.08
225.945
223.884
221.863
219.826
217.718
215.501
213.166
210.734
208.257
205.799
203.416
201.147
198.998
196.946
194.945
192.944
190.899
188.787
186.613
184.397
182.18
180.001
177.902
175.912
174.054
172.332
170.742
169.269
167.891
166.58
165.315
164.068
162.819
161.546
160.223
158.824
157.326
155.704
153.941
152.022
149.932
147.651
145.166
142.463
139.543
136.423
133.137
129.733
126.273
122.809
119.386
116.03
112.744
109.515
106.31
103.098
99.8462
96.5391
93.1781
89.7757
86.3544
82.9327
79.5172
76.1072
72.6981
69.291
65.9014
62.5533
59.2669
56.0478
52.8714
49.6873
46.4327
43.0629
39.5693
35.9887
32.4007
28.8974
25.5574
22.4184
19.4661
16.6423
13.8705
11.0764
8.21669
5.28593
2.31667
-0.644417
-3.55359
-6.38534
-9.14485
-11.8582
-14.5624
-17.2848
-20.0261
-22.7567
-25.4205
-27.9596
-30.3309
-32.5293
-34.5936
-36.5974
-38.6248
-40.7452
-42.9853
-45.33
-47.7342
-50.1368
-52.496
-54.7981
-57.0553
-59.2868
-61.4991
-63.6619
-65.7036
-67.5236
-69.0104
-70.0679
-70.6307
-70.664
-70.1488
-69.0729
-67.4198
-65.1606
-62.276
-58.7665
-54.6682
-50.0579
-45.0457
-39.7538
-34.3056
-28.8006
-23.3043
-17.8552
-12.4638
-7.12309
-1.82395
3.43725
8.65537
13.8093
18.8648
23.7782
28.503
32.9936
37.2191
41.1745
44.8731
48.3494
51.6454
54.7977
57.8202
60.7005
63.4051
65.8901
68.1223
70.0904
71.8108
73.3199
74.6654
75.8856
76.9998
78.0082
78.8971
79.6494
80.2509
80.6959
80.9889
81.1328
81.1215
80.9433
80.5713
79.9713
79.1154
77.9809
76.5602
74.8614
72.9069
70.725
68.3487
65.8107
63.1478
60.396
57.5943
54.7774
51.9706
49.1819
46.4034
43.6062
40.7604
37.846
34.8617
31.8273
28.7879
25.7932
22.8827
20.0717
17.3494
14.6872
12.0563
9.4391
6.85218
4.33219
1.92551
-0.337212
-2.47002
-4.53628
-6.64067
-8.90577
-11.4387
-14.2913
-17.4509
-20.8365
-24.3183
-27.7538
-31.0247
-34.0572
-36.8358
-39.3956
-41.8083
-44.1528
-46.5041
-48.9153
-51.4228
-54.0401
-56.7667
-59.5908
-62.4921
-65.4373
-68.3861
-71.2918
-74.1112
-76.8076
-79.3671
-81.7928
-84.1036
-86.328
-88.4923
-90.616
-92.7089
-94.7819
-96.8347
-98.8691
-100.881
-102.861
-104.798
-106.692
-108.547
-110.384
-112.225
-114.091
-115.979
-117.864
-119.714
-121.493
-123.188
-124.802
-126.357
-127.88
-129.386
-130.875
-132.334
-133.752
-135.131
-136.487
-137.842
-139.207
-140.578
-141.919
-143.192
-144.354
-145.391
-146.315
-147.156
-147.954
-148.737
-149.517
-150.293
-151.059
-151.813
-152.561
-153.319
-154.101
-154.912
-155.748
-156.583
-157.382
-158.105
-158.716
-159.19
-159.527
-159.747
-159.895
-160.027
-160.194
-160.429
-160.738
-161.095
-161.458
-161.787
-162.065
-162.303
-162.532
-162.797
-163.122
-163.506
-163.906
-164.269
-164.534
-164.649
-164.573
-164.272
-163.695
-162.777
-161.435
-159.584
-157.165
-154.159
-150.582
-146.478
-141.892
-136.859
-131.394
-125.504
-119.202
-112.515
-105.49
-98.1904
-90.6719
-82.9898
-75.1946
-67.3396
-59.4921
-51.7218
-44.0978
-36.6651
-29.432
-22.3686
-15.4262
-8.55793
-1.7445
4.98887
11.5815
17.954
24.0352
29.7865
35.2077
40.3375
45.232
49.9422
54.5062
58.9346
63.2162
67.3347
71.2674
75.0002
78.5319
81.8651
85.0078
87.9714
90.7581
93.3689
95.7947
98.0164
100.02
101.795
103.344
104.689
105.859
106.886
107.787
108.555
109.161
109.56
109.709
109.583
109.189
108.559
107.752
106.83
105.841
104.817
103.761
102.652
101.457
100.133
98.6447
96.975
95.129
93.1424
91.078
89.0193
87.0549
85.2652
83.7052
82.3912
81.3008
80.3759
79.5386
78.7092
77.8326
76.893
75.9186
74.9621
74.0856
73.3306
72.7033
72.1711
71.6839
71.1918
70.6601
70.0771
69.4491
68.7877
68.0903
67.341
66.5122
65.571
64.4913
63.2615
61.8825
60.3627
58.7236
56.9823
55.1581
53.2676
51.3193
49.3215
47.2734
45.1751
43.0272
40.8371
38.6207
36.4013
34.2035
32.0515
29.9646
27.9465
25.9871
24.0581
22.1172
20.1079
17.9788
15.693
13.2414
10.6471
7.95749
5.23693
2.5396
-0.0990758
-2.66744
-5.18041
-7.66792
-10.1505
-12.6429
-15.1439
-17.6367
-20.0963
-22.5047
-24.8535
-27.1472
-29.4047
-31.6507
-33.9036
-36.1738
-38.4526
-40.7228
-42.9593
-45.1546
-47.3164
-49.4715
-51.6574
-53.9076
-56.2323
-58.6096
-60.9871
-63.2922
-65.4639
-67.4568
-69.2687
-70.9381
-72.529
-74.115
-75.7561
-77.4791
-79.2766
-81.1165
-82.9509
-84.7298
-86.42
-87.9938
-89.4286
-90.6946
-91.7509
-92.5432
-93.0091
-93.0865
-92.7247
-91.8891
-90.5718
-88.7835
-86.5505
-83.913
-80.9183
-77.6065
-74.015
-70.1641
-66.0744
-61.7611
-57.2458
-52.5641
-47.7665
-42.9154
-38.076
-33.3066
-28.6611
-24.1853
-19.9303
-15.9413
-12.26
-8.91298
-5.89139
-3.15102
-0.615641
1.79585
4.14096
6.43586
8.64149
10.6805
12.4665
13.9367
15.0759
15.9194
16.5347
16.9944
17.3532
17.6246
17.7924
17.82
17.678
17.3563
16.8745
16.2716
15.583
14.8326
14.019
13.1125
12.0675
10.832
9.37078
7.66714
5.72651
3.58096
1.28009
-1.1159
-3.55467
-5.99754
-8.43318
-10.8809
-13.3841
-15.9949
-18.7543
-21.6733
-24.7245
-27.8397
-30.9308
-33.9122
-36.7214
-39.337
-41.7753
-44.085
-46.319
-48.5234
-50.7223
-52.9177
-55.091
-57.2153
-59.2629
-61.2132
-63.0532
-64.7745
-66.3836
-67.8977
-69.3431
-70.7606
-72.2002
-73.7138
-75.3428
-77.114
-79.03
-81.0664
-83.1779
-85.3043
-87.3822
-89.3584
-91.1992
-92.8977
-94.4733
-95.9617
-97.406
-98.8389
-100.274
-101.704
-103.111
-104.484
-105.822
-107.149
-108.503
-109.921
-111.425
-113.012
-114.655
-116.315
-117.954
-119.54
-121.072
-122.556
-124.007
-125.446
-126.886
-128.338
-129.814
-131.319
-132.857
-134.422
-135.995
-137.551
-139.057
-140.488
-141.833
-143.093
-144.284
-145.429
-146.536
-147.607
-148.631
-149.581
-150.435
-151.188
-151.849
-152.454
-153.055
-153.703
-154.431
-155.245
-156.113
-156.973
-157.751
-158.381
-158.841
-159.159
-159.417
-159.733
-160.23
-160.997
-162.063
-163.386
-164.866
-166.365
-167.754
-168.936
-169.875
-170.601
-171.189
-171.733
-172.321
-172.999
-173.766
-174.584
-175.394
-176.145
-176.811
-177.401
-177.949
-178.497
-179.084
-179.719
-180.386
-181.044
-181.645
-182.141
-182.504
-182.715
-182.773
-182.679
-182.43
-182.019
-181.43
-180.653
-179.69
-178.553
-177.271
-175.876
-174.39
-172.813
-171.127
-169.304
-167.325
-165.197
-162.959
-160.677
-158.417
-156.225
-154.109
-152.036
-149.944
-147.767
-145.456
-142.993
-140.386
-137.664
-134.865
-132.034
-129.208
-126.432
-123.747
-121.193
-118.795
-116.567
-114.499
-112.566
-110.732
-108.964
-107.235
-105.532
-103.851
-102.198
-100.589
-99.0444
-97.5877
-96.2516
-95.0728
-94.0894
-93.3375
-92.8444
-92.6143
-92.6263
-92.8266
-93.1332
-93.4496
-93.6838
-93.7715
-93.6933
-93.482
-93.2157
-92.9956
-92.9207
-93.0551
-93.4196
-93.988
-94.6994
-95.4874
-96.2936
-97.0826
-97.8379
-98.557
-99.2351
-99.8615
-100.417
-100.882
-101.248
-101.517
-101.706
-101.842
-101.947
-102.036
-102.114
-102.186
-102.263
-102.374
-102.56
-102.865
-103.32
-103.918
-104.621
-105.363
-106.067
-106.67
-107.138
-107.473
-107.707
-107.881
-108.041
-108.213
-108.414
-108.647
-108.918
-109.236
-109.62
-110.09
-110.663
-111.332
-112.069
-112.821
-113.521
-114.11
-114.552
-114.856
-115.071
-115.272
-115.537
-115.928
-116.463
-117.129
-117.882
-118.679
-119.481
-120.265
-121.014
-121.706
-122.312
-122.801
-123.156
-123.377
-123.5
-123.581
-123.692
-123.885
-124.188
-124.603
-125.113
-125.691
-126.306
-126.94
-127.568
-128.162
-128.695
-129.145
-129.509
-129.806
-130.073
-130.355
-130.689
-131.089
-131.551
-132.045
-132.537
-132.992
-133.386
-133.693
-133.89
-133.947
-133.824
-133.471
-132.83
-131.85
-130.493
-128.745
-126.613
-124.138
-121.38
-118.416
-115.312
-112.119
-108.856
-105.509
-102.043
-98.4226
-94.6291
-90.6781
-86.6172
-82.5159
-78.4477
-74.4698
-70.6113
-66.8751
-63.2387
-59.6699
-56.1378
-52.6205
-49.1131
-45.6199
-42.1573
-38.7405
-35.3767
-32.063
-28.7887
-25.5344
-22.2848
-19.0306
-15.7774
-12.5431
-9.35745
-6.25987
-3.29053
-0.489583
2.10752
4.47823
6.61711
8.5396
10.2862
11.9128
13.4848
15.0559
16.6636
18.3179
20.0058
21.6969
23.357
24.9549
26.4629
27.8582
29.1272
30.2587
31.2511
32.1124
32.8558
33.4979
34.0523
34.5241
34.9117
35.2196
35.4603
35.664
35.8649
36.0937
36.3638
36.6614
36.9513
37.1921
37.3545
37.4402
37.4806
37.5243
37.6185
37.7977
38.0655
38.4097
38.8084
39.2426
39.7074
40.2046
40.7326
41.2779
41.8087
42.288
42.6747
42.949
43.1072
43.1629
43.1347
43.0343
42.8636
42.6153
42.2832
41.8731
41.4134
40.9505
40.5364
40.2147
40.0071
39.9013
39.8539
39.8004
39.6662
39.3887
38.9343
38.2986
37.5157
36.6412
35.7339
34.8487
34.0114
33.221
32.4559
31.6812
30.861
29.967
28.9872
27.9129
26.7495
25.5111
24.2265
22.9366
21.6923
20.5445
19.5324
18.668
17.9307
17.2691
16.6172
15.9109
15.1045
14.1827
13.1616
12.0755
10.9682
9.87842
8.83269
7.84472
6.91866
6.05258
5.24752
4.50428
3.82668
3.21288
2.6516
2.12081
1.60208
1.07866
0.548964
0.0299692
-0.455265
-0.884463
-1.25855
-1.60635
-1.97693
-2.42988
-3.01389
-3.74298
-4.60285
-5.54278
-6.49214
-7.3786
-8.13702
-8.71404
-9.06818
-9.16372
-8.96304
-8.42969
-7.52736
-6.22587
-4.51412
-2.40372
0.0655887
2.82502
5.78117
8.83604
11.9027
14.935
17.9265
20.9152
23.9567
27.0956
30.3422
33.6585
36.971
40.1955
43.2674
46.1626
48.8999
51.522
54.0786
56.5968
59.0676
61.4556
63.7082
65.7807
67.6544
69.3515
70.9223
72.4323
73.9425
75.4823
77.04
78.5694
79.998
81.2575
82.3036
83.1257
83.747
84.2061
84.5451
84.7878
84.9399
84.9922
84.9328
84.7512
84.44
83.999
83.4316
82.749
81.9765
81.1587
80.3479
79.5973
78.9393
78.362
77.8141
77.2105
76.4595
75.4893
74.2735
72.8436
71.2772
69.6765
68.1397
66.7301
65.4661
64.3119
63.1936
62.0239
60.7298
59.2791
57.6797
55.9883
54.287
52.663
51.1823
49.8804
48.7578
47.7882
46.9247
46.1129
45.3056
44.4617
43.561
42.5984
41.5846
40.5462
39.5066
38.4806
37.4635
36.4295
35.3302
34.1172
32.7452
31.1944
29.4727
27.6193
25.6919
23.753
21.8572
20.0351
18.2888
16.5901
14.891
13.1217
11.2084
9.08903
6.72225
4.1042
1.27332
-1.69048
-4.67814
-7.56582
-10.2406
-12.6083
-14.6099
-16.2157
-17.4211
-18.2449
-18.721
-18.9015
-18.857
-18.6792
-18.4679
-18.3321
-18.3593
-18.6083
-19.0797
-19.722
-20.4299
-21.0643
-21.4896
-21.6107
-21.3998
-20.9194
-20.3124
-19.7641
-19.4556
-19.5191
-19.9973
-20.8452
-21.9474
-23.1622
-24.3709
-25.5074
-26.5669
-27.6035
-28.6933
-29.9023
-31.2608
-32.7555
-34.3281
-35.9017
-37.4064
-38.8017
-40.0908
-41.3094
-42.5116
-43.7401
-45.022
-46.3532
-47.7145
-49.0908
-50.4855
-51.9164
-53.4088
-54.9773
-56.6034
-58.2495
-59.8715
-61.4493
-63.0009
-64.588
-66.2946
-68.187
-70.28
-72.5196
-74.7919
-76.9482
-78.8357
-80.334
-81.373
-81.9307
-82.0305
-81.7336
-81.1211
-80.2884
-79.3351
-78.3487
-77.3972
-76.5165
-75.7056
-74.9368
-74.165
-73.3467
-72.4528
-71.4795
-70.4426
-69.3744
-68.3129
-67.2927
-66.3326
-65.4313
-64.5713
-63.7244
-62.8608
-61.969
-61.0606
-60.1718
-59.3547
-58.6621
-58.1384
-57.8084
-57.6806
-57.7469
-57.997
-58.4119
-58.9629
-59.6074
-60.2854
-60.9249
-61.4547
-61.8224
-62.0155
-62.0606
-62.0157
-61.9548
-61.9462
-62.0331
-62.236
-62.558
-62.9985
-63.5645
-64.2709
-65.1361
-66.1683
-67.3662
-68.7113
-70.1643
-71.6784
-73.1981
-74.6591
-76.0032
-77.179
-78.1575
-78.9365
-79.5478
-80.047
-80.4913
-80.937
-81.4221
-81.9652
-82.576
-83.2652
-84.0514
-84.9589
-85.9978
-87.1597
-88.4073
-89.6685
-90.8584
-91.8976
-92.7319
-93.3496
-93.7787
-94.0847
-94.3486
-94.6556
-95.0656
-95.6041
-96.2629
-96.9954
-97.7407
-98.4411
-99.0605
-99.597
-100.08
-100.556
-101.064
-101.619
-102.206
-102.781
-103.294
-103.707
-104.009
-104.222
-104.385
-104.536
-104.699
-104.876
-105.046
-105.187
-105.284
-105.348
-105.406
-105.493
-105.649
-105.888
-106.201
-106.561
-106.933
-107.284
-107.602
-107.896
-108.19
-108.514
-108.887
-109.309
-109.757
-110.195
-110.579
-110.884
-111.102
-111.257
-111.392
-111.558
-111.796
-112.116
-112.497
-112.889
-113.23
-113.475
-113.609
-113.65
-113.645
-113.645
-113.686
-113.777
-113.896
-113.996
-114.037
-113.977
-113.784
-113.44
-112.916
-112.186
-111.21
-109.952
-108.375
-106.445
-104.133
-101.407
-98.261
-94.7043
-90.7849
-86.5906
-82.2335
-77.8338
-73.4881
-69.2478
-65.1174
-61.0629
-57.0415
-53.0167
-48.9748
-44.9175
-40.8536
-36.7788
-32.6732
-28.5041
-24.2479
-19.9034
-15.499
-11.0869
-6.7309
-2.47975
1.63888
5.62546
9.49095
13.2466
16.8856
20.3791
23.6912
26.7862
29.658
32.3371
34.8814
37.3728
39.8845
42.4586
45.1017
47.778
50.4261
52.9786
55.3815
57.6016
59.6329
61.4827
63.1611
64.6704
66.002
67.139
68.067
68.7869
69.3201
69.7094
70.0032
70.2429
70.4549
70.6417
70.7866
70.8647
70.8599
70.7682
70.6032
70.393
70.1639
69.9405
69.735
69.5465
69.3614
69.1707
68.9698
68.7632
68.5619
68.3801
68.2257
68.092
67.968
67.8389
67.6945
67.5459
67.4117
67.3173
67.274
67.268
67.2557
67.177
66.9655
66.5811
66.0194
65.3187
64.547
63.7846
63.0931
62.5032
62.006
61.5558
61.0926
60.5549
59.9039
59.1244
58.2327
57.2599
56.2408
55.1971
54.1365
53.0467
51.9067
50.7039
49.4367
48.1184
46.7764
45.4289
44.0854
42.7406
41.381
40.0003
38.6079
37.2245
35.8754
34.5779
33.3319
32.1193
30.9235
29.7339
28.5613
27.4263
26.344
25.3108
24.2957
23.2563
