196248755,86120586,1047655845,-96995136
196050514,86117234,1047711019,-96803083
195820608,86032767,1047771643,-96687526
195787701,86011715,1047824565,-96198172
195643097,85985975,1047840237,-96344687
195516664,86008564,1047877332,-96177702
195271767,86031737,1047912373,-96272855
194918471,85999603,1047978300,-96300103
194741058,86043925,1048007544,-96301289
194592512,86041812,1048038902,-96262253
194430411,86066815,1048067528,-96255860
194170458,86044704,1048102742,-96416901
194023182,86043881,1048135089,-96362517
193797760,86049793,1048166498,-96469219
193588803,86055217,1048214952,-96357435
193466446,86046010,1048238362,-96356767
193409647,86051560,1048253147,-96304990
193332402,86041506,1048266217,-96326817
193244613,86031376,1048292804,-96222647
193116153,86024547,1048318459,-96207169
192953920,86006272,1048346981,-96238244
192905623,86015391,1048361293,-96170993
192737882,86006272,1048394655,-96151802
192632399,85979837,1048407329,-96248599
192489729,85994462,1048444651,-96114337
192429642,85986241,1048454595,-96133549
192329960,85999095,1048493893,-95892629
192167481,85984700,1048523869,-95903524
192049184,85972065,1048544815,-95922820
192005728,85986522,1048560161,-95829064
191901216,85975759,1048578807,-95844041
191805092,85975976,1048600006,-95804328
191748863,85990918,1048603697,-95863057
191605713,85971246,1048627222,-95909589
191487056,85975589,1048655005,-95838879
191349582,85960627,1048679133,-95862862
191341625,85967969,1048683833,-95820740
191275032,85964893,1048697190,-95810274
191160346,85945126,1048714364,-95868893
190976367,85942686,1048753681,-95807643
190881137,85946226,1048775952,-95750439
190774462,85934438,1048794536,-95770059
190708630,85915705,1048799956,-95845697
190564058,85922994,1048834937,-95747742
190476101,85899883,1048845040,-95834789
190441696,85905267,1048854815,-95792064
190367544,85901047,1048869462,-95784272
190254897,85897163,1048892688,-95759032
190174390,85896676,1048910177,-95728846
190026543,85885190,1048937932,-95729985
189917076,85876044,1048958161,-95734313
189828427,85863304,1048972340,-95766364
189845943,85868459,1048970612,-95745937
189829877,85857012,1048969470,-95800563
189792199,85848705,1048974312,-95829636
189718727,85852382,1048991808,-95780159
189622245,85833541,1049005131,-95841753
189573171,85831385,1049014909,-95833409
189553249,85814825,1049012490,-95913941
189516515,85830085,1049026672,-95817398
189472313,85826444,1049034769,-95818993
189483131,85824047,1049031448,-95836213
189407261,85806726,1049040824,-95898195
189336950,85825559,1049063702,-95768881
189365999,85816341,1049053670,-95829988
189329016,85820357,1049063299,-95793517
189212120,85815192,1049086419,-95773979
189118705,85795151,1049098370,-95843656
189086728,85830400,1049114419,-95698721
189059549,85821830,1049119012,-95709144
189032800,85850652,1049109889,-95835425
188973086,85826729,1049128404,-95770444
188994413,85821380,1049136495,-95644976
188973897,85819292,1049140044,-95647937
188980712,85817675,1049149497,-95532338
189020142,85789003,1049129361,-95702035
188982476,85830043,1049147699,-95537529
188968112,85877145,1049120852,-95817657
188871865,85863452,1049155728,-95635060
188860683,85868640,1049139652,-95842141
188854054,85859506,1049137359,-95888479
188850472,85864415,1049140144,-95860656
188879798,85809856,1049162538,-95593002
188831697,85808381,1049173842,-95578591
188774155,85792360,1049179801,-95641206
188742200,85786670,1049184416,-95658749
188704518,85789580,1049193784,-95627730
188680536,85791023,1049199578,-95610190
188673459,85790625,1049200951,-95609433
188653631,85767946,1049195994,-95723246
188607224,85769125,1049206550,-95697925
188640466,85790179,1049207936,-95598290
188661829,85796229,1049205769,-95574484
188657447,85786078,1049202578,-95627263
188619287,85791203,1049212949,-95584139
188574862,85776529,1049216594,-95644926
188522986,85795271,1049235500,-95522911
188441023,85784519,1049248884,-95547275
188299840,85753259,1049266709,-95657868
188296487,85741654,1049262684,-95718997
188235795,85754647,1049281158,-95624175
188221936,85753413,1049283655,-95625159
188164144,85739004,1049290277,-95679142
188070084,85724512,1049304716,-95718699
188010449,85725614,1049318085,-95688300
187948330,85692728,1049318036,-95840209
187834171,85701095,1049346198,-95748138
187802090,85689892,1049348538,-95795440
187711966,85670891,1049362574,-95835314
187702259,85661808,1049360935,-95880379
187680053,85658256,1049364279,-95890417
187687871,85669324,1049367147,-95833830
187678898,85660545,1049365474,-95877566
187656503,85669830,1049374146,-95818161
187635546,85659272,1049361595,-96005917
187528388,85663264,1049386444,-95940092
187465707,85635575,1049388573,-96063936
187500478,85631389,1049379313,-96100959
187470768,85610955,1049377292,-96199142
187399390,85618019,1049395677,-96131345
187401255,85606559,1049390528,-96194108
187320932,85609414,1049409102,-96145374
187248993,85584624,1049414395,-96249743
187200986,85587216,1049425862,-96215783
187170597,85581663,1049430134,-96233248
187155331,85577395,1049431665,-96250034
187081189,85570644,1049444905,-96255813
187082380,85560659,1049440497,-96310416
187062009,85580882,1049453306,-96192367
186984097,85607448,1049450057,-96355508
186954486,85599754,1049453260,-96384910
187007669,85597194,1049440685,-96420929
186911832,85594909,1049460474,-96393388
186908474,85597736,1049459666,-96406186
186847069,85597910,1049473022,-96379661
186909824,85608771,1049462494,-96362975
186933871,85609257,1049457495,-96370345
186908221,85623079,1049468796,-96284707
186959267,85604577,1049462080,-96275258
187041561,85597539,1049451614,-96235758
187073308,85609382,1049449666,-96184751
187163598,85596678,1049441920,-96104886
187156418,85576602,1049435144,-96210682
187167895,85571802,1049451625,-96012652
187198605,85568287,1049443529,-96044400
187398029,85563288,1049437690,-95723232
187679129,85521108,1049438894,-95195562
187705557,85532595,1049437882,-95144277
187670396,85505204,1049434276,-95277935
187700672,85532904,1049439064,-95140595
187714678,85534851,1049436837,-95135780
187709521,85485995,1049459108,-94944005
187807768,85473281,1049432721,-95052762
187810298,85483929,1049436517,-94996267
187760954,85487823,1049448749,-94955158
187840857,85481573,1049442787,-94868611
187941725,85558793,1049424492,-94801582
188065396,85565283,1049400431,-94816818
187883170,85570279,1049411372,-95052190
187860689,85570820,1049409160,-95120523
187858339,85574959,1049411357,-95097207
187859966,85572235,1049409896,-95112566
187855319,85583195,1049415368,-95051486
187860163,85577295,1049411916,-95085323
187770627,85570373,1049428426,-95086194
187708597,85582421,1049433864,-95137788
187699834,85581359,1049435323,-95139947
187705468,85597095,1049445597,-95001243
187747861,85589421,1049433319,-95060001
187695775,85546452,1049445909,-95062545
187798048,85578128,1049436751,-94933064
187810338,85558469,1049426901,-95035301
187747523,85570920,1049416674,-95260866
187552959,85526656,1049441185,-95413730
187568553,85544143,1049444987,-95325539
187637551,85548103,1049431708,-95332387
187656561,85555703,1049430716,-95299065
187599172,85541327,1049437221,-95353299
187539753,85540687,1049449789,-95332432
187429584,85533947,1049471629,-95314714
187392953,85540902,1049482385,-95262052
187337956,85526851,1049488489,-95315575
187328630,85518315,1049482138,-95411444
187309548,85504872,1049480731,-95476407
187302344,85506733,1049483051,-95463366
187185214,85490249,1049493558,-95592266
187132145,85494560,1049506790,-95547032
187150970,85478446,1049496085,-95642116
187125393,85453507,1049491314,-95766721
187034726,85472622,1049488157,-95961168
186959184,85470687,1049491165,-96077125
186999450,85479174,1049483228,-96077913
186880844,85376976,1049477243,-96464147
186784394,85386667,1049485742,-96549860
186794825,85379658,1049480552,-96592278
186780224,85378387,1049483182,-96593064
186782066,85374452,1049481138,-96615190
186685939,85324851,1049493574,-96709659
186591442,85329779,1049512628,-96680881
186594708,85316830,1049506490,-96752610
186524924,85302559,1049515603,-96800879
186476542,85289905,1049520758,-96849334
186448416,85289869,1049526831,-96837703
186402016,85257521,1049523261,-96994076
186443373,85270122,1049519612,-96942984
186459479,85271810,1049516835,-96940591
186430737,85268036,1049541513,-96731784
186453789,85261357,1049533722,-96777758
186449185,85260418,1049538943,-96730826
186550650,85269091,1049520630,-96726264
186488614,85260905,1049530617,-96744730
186489058,85263174,1049531473,-96732588
186553445,85260220,1049516299,-96775679
186607173,85253833,1049503280,-96818900
186604859,85288625,1049508483,-96736285
186618661,85248611,1049518773,-96633235
186660827,85240862,1049530831,-96427451
186662872,85243677,1049531565,-96413014
186667279,85252956,1049534489,-96364442
186632568,85243390,1049537998,-96401906
186709512,85253464,1049525571,-96379305
186750289,85271692,1049524356,-96297380
186772543,85278120,1049522224,-96271760
186831808,85275864,1049508469,-96308713
186885372,85280603,1049498859,-96305316
186919576,85270959,1049487441,-96371888
186902364,85288234,1049498361,-96271012
186878005,85284229,1049501960,-96282605
186962420,85211503,1049517564,-96012660
186958704,85195110,1049517358,-96036688
186986569,85198179,1049512609,-96031616
186810794,85215056,1049522512,-96250246
186843153,85211090,1049513862,-96285268
186878721,85255897,1049486199,-96477908
186855598,85256525,1049491465,-96464850
186802040,85260318,1049504637,-96421905
186884041,85265712,1049489144,-96426879
186902100,85272624,1049488120,-96396908
186827523,85316365,1049470728,-96691658
186741960,85308313,1049485887,-96699510
186715617,85310503,1049492507,-96676594
186756801,85313047,1049484655,-96680050
186732397,85311773,1049489404,-96676748
186786708,85325453,1049483374,-96625213
186665381,85335473,1049488460,-96795423
186650420,85346677,1049496398,-96728297
186466064,85371323,1049497357,-97051150
186437697,85367564,1049501919,-97059622
186453230,85359788,1049495276,-97108440
186389134,85377136,1049501329,-97150797
186376813,85392056,1049494645,-97233494
186300189,85356504,1049501354,-97339066
186202042,85361712,1049524824,-97269200
186219389,85380257,1049528909,-97175593
186225513,85367251,1049522085,-97248961
186168645,85361154,1049531825,-97258072
186245832,85357922,1049513740,-97308287
186263785,85317375,1049527567,-97160238
186294301,85348828,1049534234,-97001967
186211549,85328640,1049547282,-97037422
186288009,85314666,1049543739,-96941237
186190796,85301708,1049542247,-97155307
186119506,85293055,1049554023,-97172266
186113315,85319254,1049566432,-97026988
186134731,85317822,1049561193,-97043836
186164359,85330774,1049560250,-96985805
186170840,85306784,1049548725,-97119106
186139191,85317803,1049560225,-97045775
186119396,85323714,1049556089,-97123240
186035411,85345215,1049575783,-97052386
186011258,85349385,1049582769,-97019457
185963206,85342882,1049590414,-97034578
186011504,85378247,1049580251,-97020835
185936124,85337464,1049585561,-97143661
185819400,85320463,1049599817,-97227850
185574051,85290209,1049613026,-97579694
185430879,85156466,1049654259,-97525091
185291968,85133634,1049655922,-97790744
185194676,84912580,1049592041,-98847153
184844782,84254976,1049678055,-99150829
185331234,83924076,1049687964,-98415935
185455286,83550392,1049680585,-98578810
185070567,82607443,1049927447,-97461118
185001743,82039473,1050115610,-96033840
184972239,81923608,1050174959,-95539310
185403368,81568318,1050272881,-93917601
185478820,81128337,1050353775,-93242647
185751431,80926475,1050372356,-92664357
185951893,80728088,1050313800,-93098109
185825191,80124443,1050441390,-92430621
185512011,79325287,1050630824,-91592086
185256262,78629582,1050757246,-91258675
185333667,77884703,1050874746,-90383121
185669385,77241993,1050966860,-89166510
186314318,76748623,1050990871,-87956194
186783449,76434420,1050993815,-87196416
186959655,76336055,1050990051,-86949992
187026295,76339207,1050977298,-86958065
186940247,76303382,1050991326,-87004974
186424323,76151991,1051093100,-87015079
185928884,75945270,1051147333,-87598606
185668460,75674263,1051210091,-87632345
185698360,75468883,1051286629,-86824223
185643859,75533136,1051295125,-86782002
186219844,75419875,1051278997,-85836815
186999381,75498192,1051237336,-84574302
187691086,75651667,1051191319,-83469723
188203246,75471289,1051201757,-82340719
188285849,75373354,1051254558,-81563814
188161080,75184049,1051328671,-81069706
188026965,75102887,1051367415,-80953566
187287863,74917782,1051476833,-81415912
186495049,74830358,1051581486,-81962657
186073877,74675295,1051645418,-82240496
186017008,74642890,1051645501,-82397343
185920862,74525333,1051690653,-82144039
185992515,74572722,1051685329,-82006890
185773165,74557427,1051666311,-82758389
185690533,74258968,1051720242,-82526481
185786451,73868531,1051808279,-81533048
185633137,73794380,1051817952,-81824056
185528798,73761491,1051832908,-81898032
185706650,73772050,1051800339,-81903767
185626782,73543707,1051855979,-81574949
185160766,73563293,1051907080,-81956403
184586851,73530681,1051961850,-82574673
184415698,73631419,1052021502,-82105919
183922046,73594010,1052075165,-82557555
183547870,73474861,1052175010,-82222958
183005068,73508656,1052193213,-83163733
182978936,73497650,1052206690,-83060349
182722063,73635185,1052169062,-83975301
182535883,73429898,1052264321,-83363863
182435114,73619607,1052248822,-83612239
182154364,73479813,1052251005,-84316405
182389193,73580919,1052253916,-83682272
181894272,73656160,1052185438,-85533021
181997029,73625706,1052275232,-84226212
181963814,73769177,1052203370,-85065964
181760967,73493199,1052234952,-85347004
181965066,73448945,1052247599,-84792861
181552723,73178690,1052245734,-85925177
182003273,72958409,1052269915,-84857462
181907424,72859056,1052195774,-86059023
181989910,72308505,1052283030,-85278705
182416630,71969287,1052247287,-85095494
182647881,71878557,1052193794,-85337596
182915412,71741957,1052152312,-85391330
183292751,71780220,1052098618,-85211872
183095071,71691108,1052064098,-86132882
182974600,71404266,1052145342,-85633178
183203773,71288566,1052141797,-85282703
183015714,71229065,1052155541,-85565936
183122656,71252192,1052142537,-85477860
183207532,71306667,1052120018,-85527826
182965939,71576858,1052113636,-85896731
182691542,71910462,1052073317,-86691947
182430991,72151739,1052064756,-87142502
181918397,72412839,1052086206,-87735686
181694791,72412666,1052100341,-88028770
181530056,72106761,1052188109,-87569183
181536569,71954002,1052232571,-87146078
181645993,71814267,1052257379,-86733028
181942740,71696354,1052265239,-86111582
182122077,71682487,1052242894,-86017333
182102141,71503393,1052248875,-86135330
181979057,71177242,1052267053,-86442742
181970984,70746591,1052341583,-85904291
181949804,70421072,1052345962,-86162545
181899483,70227688,1052300746,-86974942
181773369,70243473,1052291703,-87334289
181743372,70357997,1052260799,-87676163
182097222,70466758,1052161722,-88043523
182612417,70546589,1052074039,-87961091
183112714,70709824,1051993009,-87759485
183377107,70932510,1051959914,-87424075
183360152,71190741,1051935652,-87541573
183219769,71408374,1051947913,-87510762
183125146,71424508,1051975286,-87366372
182924810,71458668,1052031502,-87080518
183125492,71492233,1052003312,-86971906
183193332,71300678,1052021593,-86764988
183407282,70772567,1052143021,-85260158
183546266,70667338,1052186332,-84510711
183775873,70532234,1052159500,-84458854
184464465,70022245,1052171149,-83228507
185212489,69816132,1052136244,-82175376
185225222,69788073,1052137717,-82151652
185375201,69839456,1052125816,-81921854
185044501,69672158,1052162526,-82339285
184495284,69426556,1052237112,-82824339
183592156,69060011,1052353648,-83652163
182971767,68687092,1052457895,-84005530
182557988,68371058,1052501367,-84616142
182168333,67874775,1052584487,-84820659
182103926,67598649,1052631925,-84590350
182194414,67396030,1052625829,-84633190
182187194,66882655,1052671463,-84488262
182396926,66425306,1052712204,-83887147
182330251,66273200,1052731517,-83909923
182395532,66148527,1052713989,-84086249
182652684,66000276,1052723264,-83526953
182539377,65987694,1052744942,-83511205
182687549,65940987,1052720202,-83536177
182788014,65875456,1052712159,-83469583
182729857,65832390,1052718622,-83549258
182686073,65800420,1052713432,-83735325
182720058,65727131,1052730518,-83503648
182791094,65693395,1052753909,-83078850
182772369,65763346,1052735136,-83302268
182777557,65759743,1052732700,-83324512
182740972,65759879,1052740207,-83309753
182805717,65804946,1052734030,-83210211
182777477,65773842,1052732888,-83311185
182698500,65887729,1052793400,-82626847
182401880,66159933,1052771671,-83338016
182247771,66132976,1052804688,-83279204
182171079,66108533,1052851233,-82876867
181952439,66292701,1052846455,-83269435
181862837,66269873,1052872510,-83153651
181946574,66287241,1052932272,-82194548
182002496,66595747,1052892668,-82328673
182119059,66879934,1052918692,-81503802
182189244,67073516,1052922417,-81139057
182576628,67409042,1052879761,-80542215
182749236,67734272,1052812682,-80754728
183123688,68229712,1052780663,-79902831
183217597,68653045,1052732693,-79957063
183499094,69154919,1052701505,-79287172
183360131,69220006,1052730886,-79161507
183442369,69302448,1052730712,-78900822
183386904,69707463,1052706466,-78996360
183465122,69990164,1052647547,-79349202
183576928,70082552,1052632207,-79212570
183550904,70207501,1052642199,-79029210
183721605,70284873,1052586558,-79304578
183588081,70306904,1052643961,-78830805
183593841,70328465,1052640713,-78841533
184004371,70477296,1052586567,-78474014
184369880,70741857,1052534830,-78071267
184708490,70807392,1052486558,-77862192
185015648,71067821,1052418093,-77821243
184918771,71134055,1052410971,-78086801
185196775,71120571,1052387104,-77761361
185442908,71503311,1052278245,-78295220
185419296,71542842,1052267118,-78464379
185378213,71577828,1052266873,-78532787
185329936,71559343,1052270229,-78618545
185384478,71574702,1052267663,-78510267
185385747,71550405,1052261606,-78610523
185463531,71372822,1052283142,-78299622
185668356,71367149,1052240248,-78395831
185734234,71353106,1052226509,-78436981
185645846,71431027,1052219836,-78664465
185373715,71493682,1052227481,-79145469
185310111,71490361,1052237118,-79169261
185303754,71511315,1052245712,-79050906
185259004,71453226,1052255594,-79076759
185158066,71438261,1052270779,-79124560
185233107,71446208,1052258378,-79106701
185223889,71446761,1052257515,-79139254
185131111,71367839,1052278378,-79150106
184770704,71406663,1052299498,-79674561
184525911,71450837,1052359306,-79411765
184504310,71594553,1052356098,-79375004
184559513,72093435,1052344124,-78952785
185000933,72664255,1052308273,-77867015
185501597,73308152,1052214455,-77338598
185728611,73672775,1052248983,-75965387
185684602,74374967,1052255225,-75299330
185540967,75141404,1052146753,-76400104
185555538,75686151,1052060439,-77013179
185478618,75906153,1052043848,-77208317
185235003,75989184,1052049420,-77634298
184951431,76114362,1052109190,-77377211
184722903,76326930,1052136850,-77337484
184470628,76479859,1052099182,-78294919
184294615,76386216,1052110324,-78650185
184133996,76014287,1052215381,-77978325
184446316,75654213,1052253229,-77074646
184717769,75442389,1052237769,-76843072
184641435,75472129,1052197647,-77543486
184677146,75345439,1052204782,-77484829
184824994,75402713,1052151210,-77803483
184690004,75535683,1052090339,-78811604
184495817,75447145,1052108322,-79110480
184609806,75227295,1052129910,-78766135
184618448,75101008,1052164978,-78397103
184673476,74804197,1052203192,-78037598
184867440,74811305,1052154519,-78227663
184677318,74907464,1052129110,-78923259
184592192,75142047,1052126488,-78934308
184237527,75457198,1052106959,-79718453
184056895,75521322,1052122003,-79876134
183457551,75545642,1052143891,-80936040
182715765,75482835,1052191353,-82047092
181964971,75397057,1052267858,-82808579
181240953,75295771,1052358070,-83338884
181132779,75165164,1052377371,-83447900
181062132,74977675,1052402143,-83457302
181065130,74978904,1052401641,-83456036
180761083,74893376,1052402306,-84179589
180490749,74709712,1052414453,-84768146
180214647,74448163,1052475063,-84832290
180054599,74289808,1052502056,-84984082
180047971,74284531,1052501348,-85011501
180086441,74321710,1052451421,-85505652
179974734,74206467,1052435859,-86039318
179696697,73770174,1052565343,-85409387
179493676,73649748,1052624048,-85216514
179518934,73603536,1052655388,-84815166
179838522,73617559,1052617522,-84595628
180282717,73592440,1052610921,-83741902
180612160,73628992,1052610515,-83002746
180954200,73875175,1052625814,-81837795
181262837,74521191,1052586160,-81076345
181553886,75211921,1052491216,-81020532
181516956,75970087,1052484370,-80482989
181333671,76575119,1052466120,-80560953
181262671,77033841,1052515940,-79626939
181198633,77359198,1052528235,-79293888
181204477,77447567,1052600162,-78232408
181177367,77433407,1052684551,-77166394
181395379,77413950,1052706579,-76369682
181494026,77225211,1052729729,-76006672
181442522,76568005,1052816904,-75585778
181842714,76361403,1052838056,-74532037
181912584,76354957,1052822264,-74591345
182242974,76340036,1052757295,-74717669
182459499,76283036,1052682378,-75301099
182602396,76394259,1052634518,-75510948
182406637,76531596,1052553866,-76955132
182508597,76544895,1052538180,-76914867
182348087,76535736,1052506690,-77730998
182105516,76350129,1052503156,-78525549
182257995,76122447,1052560205,-77623262
182430820,76061657,1052477160,-78399330
182565816,75709527,1052508311,-78006959
182736445,75373506,1052535335,-77567244
182633427,75151095,1052564989,-77623098
182751814,75158559,1052544018,-77621787
182864225,74917589,1052555340,-77436404
183154562,74791551,1052514857,-77422721
183186160,74737606,1052434117,-78490311
183403727,74729958,1052379626,-78720058
183229312,74812338,1052384815,-78977975
182681276,74787716,1052441938,-79507135
182186475,75149267,1052442044,-80295442
181705240,75155434,1052503587,-80572041
181653895,75093965,1052545681,-80194244
181584635,75145131,1052534688,-80446904
181521296,75130439,1052542050,-80507087
181590001,74973315,1052576447,-80047752
181835306,74828353,1052599612,-79319141
182123879,74697394,1052608295,-78663143
182514950,74525676,1052626026,-77676854
182794697,74732227,1052572085,-77551884
182695144,74990721,1052514203,-78318582
182827133,75034704,1052489850,-78295923
182816381,75047202,1052496319,-78222035
182828126,75253359,1052449769,-78621847
182812905,75506255,1052434925,-78613457
182578384,76178771,1052320068,-80034040
182085962,76315363,1052331156,-80874694
181930593,76326898,1052370429,-80701954
181406243,75944264,1052513101,-80380926
181445185,75747197,1052591402,-79448352
181415469,75791144,1052603558,-79313063
181497296,75894959,1052567608,-79503648
181855929,75902068,1052537795,-79071644
182256303,75976904,1052522553,-78277615
182515706,76165374,1052536117,-77302020
182586073,76260196,1052523606,-77212781
182871995,76509600,1052476883,-76926192
183139325,76950073,1052376148,-77228782
183149186,77015222,1052375129,-77154330
183351510,77320862,1052321562,-77098941
183328034,77856278,1052176396,-78582871
183329200,77862859,1052150987,-78913141
183424103,77976130,1052126499,-78907368
183732562,78009938,1052048485,-79196285
184014905,77741156,1052092426,-78215511
184568021,77658052,1052073082,-77249453
186160168,77192900,1051825654,-77265232
187969353,76623416,1051624089,-76188282
189217613,76783735,1051369844,-76438639
190025940,77007655,1051042160,-78687415
191284429,76765561,1050747660,-79800855
192435116,76845116,1050457062,-80777548
193459801,77454627,1050176498,-81393367
194315703,78063435,1049892174,-82433941
194800496,78259268,1049720230,-83289099
194707753,78264351,1049752207,-83097995
194851719,78414138,1049748593,-82663773
195546292,78563226,1049663371,-81960733
195889447,78224994,1049602372,-82245142
196482980,78856448,1049601925,-80205966
197113197,80115705,1049425294,-79720326
197697688,81340034,1049246513,-79384355
198168719,83219054,1048820917,-81846882
198803455,84899821,1048412065,-83794201
199552127,86441259,1048092812,-84438266
199624971,88361611,1047731583,-86730229
199635753,89579599,1047424286,-89134354
199866707,90329236,1047348019,-88755631
200238802,90836194,1047321610,-87704959
200745679,91801414,1047168905,-87363969
201383764,92708846,1046920970,-87906984
201441865,92568986,1046841720,-88859872
202006767,91889849,1046980649,-86617253
202460981,91815282,1047063867,-84606555
202813600,91777255,1047040822,-84086867
203034048,91866828,1046966935,-84376560
203277935,91716933,1046925745,-84463447
203785885,91306851,1047018887,-82506531
204378559,90875154,1047158010,-79703939
204973645,90694870,1047182835,-78037542
205570138,90613071,1047213289,-76131597
206404979,90749779,1047174901,-74213816
207533347,90690809,1047134973,-71658438
208304878,90573783,1047175685,-68920572
208640993,91010640,1047137292,-67904207
208193334,91485736,1047123304,-68848933
207722589,91866269,1047155016,-69280462
207257448,91847677,1047338518,-67910829
207011277,92115956,1047451398,-66543595
207328755,93188177,1047367510,-65372371
207783159,94051908,1047238308,-64759702
208473087,95086441,1047029920,-64400148
208664973,95410034,1047000473,-63775817
208471070,95501641,1047089601,-62802137
208139143,95434298,1047188793,-62349958
207956339,95117444,1047272070,-62044653
207613139,95125012,1047313175,-62487010
206877501,94285894,1047465928,-63627811
206808333,93570851,1047546089,-63588529
206500745,92998285,1047604890,-64453516
206209098,92217017,1047640922,-65907732
206031139,91252844,1047760290,-65908753
206133465,90603867,1047834635,-65299412
206182150,90292632,1047815414,-65882637
207372774,90236039,1047633837,-65106306
209098611,91208844,1047220928,-64873197
209755420,92003442,1046968997,-65691931
210781540,92500036,1046770782,-64863578
210540608,93509058,1046616385,-66665747
209955680,94198460,1046487276,-69506271
209177272,94841549,1046550334,-70027384
208201296,95659749,1046645249,-70403468
207543086,96256846,1046757094,-69868238
207150913,96982529,1046821132,-69064492
206932443,98445111,1046682644,-69745730
207024575,99565075,1046433516,-71596209
207884715,99972937,1046276963,-70819271
208435735,100933617,1046110816,-70289411
207031678,102392602,1046040336,-73312709
205303861,103882890,1046005560,-76501907
204714680,105306702,1045833830,-78457005
204099426,106926092,1045532794,-81810244
201120406,110264794,1045292993,-87614624
192876125,111843268,1046103592,-94226575
180352223,109800972,1048445199,-95392272
164873151,105523157,1051986099,-89041526
145195912,102096465,1055747849,-82537524
121093791,97764882,1059655777,-76350894
92180591,89909942,1063677131,-70223708
60385431,79396723,1067340865,-61275953
26889459,67749429,1070259662,-46397540
6027885,-57375640,-1071926019,23828906
37725404,-48496431,-1071982114,860227
70076659,-42240787,-1070362879,-23444820
100490042,-40842414,-1067169192,-48011153
131241159,-43457996,-1062975879,-62377241
162879335,-47078039,-1058319452,-64306322
193715581,-51587646,-1053225418,-58742376
223067204,-55632277,-1047598553,-51019769
250143072,-59299897,-1041465763,-46717618
275134110,-62481929,-1035110724,-43177814
298351049,-64888442,-1028546939,-42293733
320215004,-65291614,-1021792524,-45386207
340844262,-63099237,-1015131362,-47680797
360207822,-60679407,-1008448890,-50148799
378468336,-60134675,-1001576834,-53916053
394516806,-60136123,-995010169,-60115331
408554500,-60147117,-989161985,-62814094
419669590,-60239215,-984486319,-62902797
428811027,-60551829,-980498652,-63228938
434912967,-59928481,-977948790,-61606918
436935505,-59545584,-977037892,-62113290
433941137,-59933728,-978213071,-64205910
427030537,-60859441,-980902289,-68504221
417075567,-62954864,-984747267,-72656199
404649867,-64411239,-989779913,-73259172
390462444,-65137981,-995536365,-71584069
373041314,-66089793,-1002210265,-70486337
352225571,-66923181,-1009643377,-70712016
330502442,-66741539,-1017108425,-68741686
306927758,-66144783,-1025030656,-60441714
282073607,-64512445,-1032669736,-52795323
255743959,-61194102,-1040120762,-43800505
225308889,-59309127,-1047550431,-35739762
193015719,-58453582,-1054074968,-34286421
159866507,-57184647,-1059831044,-29189336
126970461,-54756961,-1064674735,-16413179
95682732,-52949393,-1068155109,-2710441
64648637,-51896180,-1070420160,15794872
34516291,-53208239,-1071345216,33443056
5746727,-54888881,-1071312422,46533719
21808032,58579144,1070391469,-57240753
47440533,62883380,1068833530,-65661771
70998244,65807740,1066940984,-72021061
92558238,69153629,1064819030,-75714375
111894387,71216274,1062437325,-80969940
128389975,72417953,1060058042,-86427572
143585725,72956861,1058032958,-86880388
156314153,74071349,1056144779,-86939581
166554079,73799167,1054521770,-87856267
175999095,74863142,1053040093,-86301190
184646623,77665343,1051440319,-85254662
192301849,79086488,1050058942,-84041913
199506893,81016046,1048773879,-81414110
205475226,83163435,1047471284,-81173797
209582855,84516792,1046605625,-80436848
210760557,84067932,1046191701,-83168281
211651238,83876768,1045904672,-84695396
213019754,84684740,1045355607,-87201783
213685370,84718713,1045124901,-88298563
214160484,83217004,1045597063,-82815289
213900065,82032847,1046176274,-77161925
212938151,82023545,1046501719,-75399290
211999521,82738918,1046489619,-77404112
211035586,83278931,1046526968,-78939024
210059320,82890516,1046800329,-78324915
209050981,82645438,1046962963,-79104110
207821347,83080508,1046810433,-83769505
203659188,84791028,1046848402,-91451328
194458822,87674973,1047650285,-99242932
180810142,90696114,1049890653,-98650649
160236220,90046795,1053331955,-98127401
134716780,86180042,1057506313,-95002796
106017730,80818186,1061986637,-85641895
75167028,75155857,1066095646,-71155358
42127859,69933785,1069070783,-57824515
8007894,64856982,1070758466,-46122200
24490082,-60144460,-1071220599,34508096
57318601,-56055633,-1070416592,26498141
90248779,-52186287,-1068513761,18201397
124710560,-49956901,-1065271805,8310932
157350867,-48723344,-1061031313,-35983
188817973,-47704482,-1055900296,-8253877
218600313,-48533537,-1050020212,-15392037
246650042,-48781454,-1043691969,-20315092
273054530,-49491373,-1036916782,-26774551
297457444,-50654415,-1029854293,-35704018
319857793,-51633339,-1022688007,-45328787
340638960,-53314965,-1015476969,-53391048
360168805,-55197244,-1008272299,-59450435
378473320,-56035506,-1001492330,-59570722
394468299,-56170572,-995492857,-56147901
405918444,-57177224,-990973177,-53428904
412201970,-58591251,-988317499,-52977454
414491568,-59628726,-987219899,-54401285
412301775,-60493734,-988171970,-52776873
405854751,-60995492,-990867749,-51614699
394904441,-62288728,-995230326,-51047661
380090729,-63472127,-1000961994,-49982643
361182933,-64796272,-1007924128,-48518617
338279996,-66497596,-1015768413,-47756514
313232122,-66356809,-1023856513,-46036161
284747443,-64122857,-1032566959,-39168017
253488342,-61404921,-1040923753,-37045138
218479788,-57759565,-1049052366,-36613262
182732811,-56065397,-1056174805,-29685899
144420688,-53493100,-1062461742,-19434641
105167958,-53311687,-1067217231,-8151345
69352737,-54176831,-1070124796,3074815
37127737,-55363097,-1071563581,15147800
7237710,-56852698,-1071798244,29755928
21111589,61325771,1070972760,-41620946
47760447,66269687,1069338678,-52569636
72148772,69607217,1067297787,-61207265
94386515,73621628,1064762169,-69814545
114248720,78157228,1062206776,-74005836
131565836,81100277,1059866923,-75609332
145455385,84528422,1057463935,-79932512
157539707,86529817,1055371095,-82500509
168082642,87699678,1053613099,-82933174
176216900,88624923,1052134095,-83836621
184131382,89846854,1050666606,-83929651
191194165,92194110,1048984927,-86586177
197665434,93121404,1047676516,-86898848
203011967,94540326,1046462480,-87670127
207081985,96359530,1045259259,-90479125
208160504,95547588,1044892093,-93069172
208347185,94388075,1045036130,-92213451
208584682,94295811,1044920682,-93075186
208762234,94695806,1044744749,-94238703
209079036,93783942,1045065277,-90832722
209831588,92172837,1045608929,-84251530
210490545,91898137,1045816128,-80240646
211051334,92325724,1045818513,-78220180
210241240,92298533,1045936439,-78854564
207013058,92567161,1046273794,-82520063
199315744,93027433,1047420650,-86316965
189119606,93125758,1049548662,-83241020
174459492,91786140,1052815265,-75104675
154749883,89058870,1056525087,-69259989
129654500,86825586,1060496789,-62601489
100472101,82533248,1064672364,-49878681
66071359,78303551,1068316993,-33517703
27024308,76581748,1070510349,-18276122
15631538,-76879824,-1070820136,10530440
62922879,-75884835,-1069150868,10960431
106237696,-74475764,-1065844873,7943994
148509221,-74061796,-1060839186,-1255105
194130632,-73291839,-1053466825,-8407742
241569956,-72755452,-1043581675,-14469874
288461514,-71416663,-1031576030,-21494494
332731866,-69308533,-1018068158,-30731001
373627180,-70238462,-1003205057,-44388622
412468925,-72999314,-986929553,-58583532
451283815,-75805082,-969135275,-65517607
487761866,-77781984,-950869406,-69333754
522901899,-77801221,-931405822,-76970409
558475296,-70345813,-911087728,-77406708
590978631,-59844829,-891159545,-76934285
616994240,-53565824,-873471521,-80087601
641177607,-51771111,-854776853,-92115544
662057544,-48460355,-838171974,-98588841
674716782,-44595069,-828289247,-98115558
681939621,-41852646,-821819531,-103637434
681728317,-42060364,-821593272,-106692406
677451830,-47760638,-823754947,-114573085
671559232,-50246550,-828306370,-115382571
663962018,-50708988,-834909430,-111489989
654718492,-50711479,-842581088,-108393365
640162956,-53604355,-853253557,-110425532
620476269,-55389896,-867457359,-111242834
596778637,-57691719,-883869791,-110554461
570588615,-56837178,-901241424,-109011779
540695358,-55325827,-919858341,-106628872
507221001,-53821904,-938710845,-107580273
472715143,-51595009,-957343858,-101451105
435507267,-49820509,-975948825,-91077123
397036768,-46633355,-993170545,-81951536
357253305,-42404632,-1009494229,-66444192
317885359,-36380651,-1023886025,-46935517
274783836,-32196021,-1036978983,-32452935
230931557,-29979523,-1048025200,-18338914
186663824,-31272190,-1056929369,-681200
142309492,-35353135,-1063536227,17617131
100661125,-41755115,-1067560171,36886790
62519162,-49719154,-1069431785,53446455
27105917,-58963955,-1069695903,66788452
6219329,67466167,1068503719,-81430608
34252100,75821988,1066294526,-94948974
58483677,81332940,1063967662,-104206166
80072131,84500218,1062134167,-106021804
97633807,87337163,1060126775,-109052936
112560423,90810426,1057819168,-114120883
124722510,92557686,1056728583,-110107124
137331283,92439603,1055986818,-102021309
146916040,95918644,1054163885,-104284687
154185080,98392164,1052833033,-104927705
160570716,100559818,1051467233,-106970611
165887995,101342287,1050308628,-109472170
171402293,99873431,1050029514,-104909820
176948728,100399918,1049590166,-99453475
177999971,100017773,1049645359,-97358009
178225591,98824338,1049793397,-96564585
177297536,99054721,1049871224,-97188811
176685152,100246055,1049764209,-98232871
176480519,99825942,1049839110,-98228080
176317709,99447189,1050034089,-96810324
171638797,100338757,1050490005,-99320224
161198966,100310731,1052091539,-99886745
145116474,98460467,1054848796,-97274186
123378788,95983905,1058105886,-94330287
95031414,91819095,1061866579,-88876941
61823628,84050884,1065479801,-82386814
25843502,76168242,1068170872,-73912146
10588321,-68662590,-1069759750,60900895
43962371,-64252715,-1069846836,47834625
76492276,-61023067,-1068630021,37100778
108894535,-58774354,-1066184018,29335897
141197635,-56417164,-1062656364,23733729
172422444,-55365905,-1058200973,18366278
205927599,-52411004,-1052406991,14420073
239603719,-47851476,-1045541102,8097864
269858674,-43037191,-1038385216,-1321307
295432619,-40255473,-1031455277,-10979359
316172825,-39071086,-1025250144,-17036254
330181232,-39704959,-1020720635,-21319197
335113563,-41576312,-1018994272,-23288950
330691783,-41652106,-1020514848,-19461829
315260418,-41666147,-1025505328,-11471529
289659446,-45046479,-1032947626,-2987251
256275340,-49047154,-1041520048,8544907
215164361,-52636339,-1050443455,20581086
170719886,-57459027,-1058167866,27485367
124883817,-62543430,-1063929115,38323570
80769888,-68015568,-1066949967,58218024
40386636,-75449320,-1067347314,79796785
2637161,-83717728,-1065768649,100215168
33406038,92327105,1063319808,-112392928
65828338,99487514,1060480867,-118619973
94631918,103791804,1056985969,-126388318
116660184,106098707,1054122998,-129921683
135971859,105873109,1052024652,-128328375
150154108,109303546,1049512465,-130198066
161382079,109388113,1047098829,-135997922
170321319,111746302,1045087601,-138624727
177819759,112593796,1043395549,-141244484
181411611,112027206,1043102397,-139275993
182924223,108603429,1043804902,-134671729
182153916,108532515,1043795726,-135838340
181932584,108452102,1044033155,-134366326
181476609,107644702,1044791091,-129657776
179356901,107466354,1045467251,-127286362
175929928,107955315,1046143610,-126092677
169365692,106502627,1047624159,-124006311
159975373,104389934,1049887032,-119033993
146961955,102032098,1052564225,-114112608
130512496,100587788,1055386793,-109218782
110619178,98429273,1058391415,-103941861
86879168,96113136,1061412552,-97668698
60112426,93501763,1064097746,-90892290
29313728,90071409,1066102090,-85881807
4045865,-84866235,-1067436495,79260261
37713207,-79295173,-1068071311,66597050
70091463,-73814709,-1067384583,57009654
104552893,-68745501,-1065003520,55061353
139288875,-61866759,-1061423118,55437443
174113205,-53888231,-1056870290,52223986
209746648,-45581537,-1051231777,41974968
244077571,-37419092,-1044560443,28998787
275581582,-29981747,-1037195046,17423185
303516772,-25164716,-1029633844,4432469
326184622,-22243074,-1022697562,-10935589
344154975,-22017609,-1016627769,-21495199
355034850,-22935936,-1012872684,-20847774
358559600,-23996997,-1011717899,-14406816
354074454,-26053014,-1013313882,-8306698
342203029,-29441438,-1017319678,-3526682
321454211,-34322836,-1023917056,1910942
292377340,-42254550,-1032281978,6742069
256178735,-48563999,-1041533032,11940690
215459634,-53630559,-1050294429,22445966
173354025,-60456867,-1057446334,31970339
128794068,-65413213,-1063194261,40894737
85622949,-70174166,-1066580590,55422435
47557794,-76609641,-1067628761,70423863
12483661,-79826549,-1067486374,82862699
19163109,84036776,1066003043,-95549003
48704434,87904090,1063342381,-110114613
75563609,93027634,1060196238,-120587848
100556823,96849107,1057109594,-126290888
121282407,99380703,1054052794,-131560877
137188573,100694768,1051493741,-135359697
151247225,101093165,1049738658,-133696088
163522624,103231247,1048134071,-130153891
172863982,105641083,1046156807,-132043336
180549739,108504646,1044054031,-136014760
188120801,109992639,1042762660,-134460858
193885457,111371346,1041415097,-135576180
197831829,113131186,1040004093,-139197806
199193262,112905105,1039819177,-138823873
200229662,112337242,1040083606,-135779324
199692595,112627731,1040349908,-134281184
197535430,112223216,1041008670,-132692940
194697388,110524314,1042074557,-129920411
189501713,109547739,1042963111,-131291890
179709833,108857763,1044650147,-132219282
165460815,106477274,1047674738,-128780440
146127466,103334787,1051349797,-124714845
122114423,100112738,1055318793,-119537681
93746749,97055739,1059326922,-111980841
60359287,93073843,1063104411,-102100601
22569196,87100637,1066031882,-91660377
17034976,-79169776,-1067481862,82740174
56198092,-71034560,-1066958361,79480734
96245242,-65452380,-1064648861,76792881
135697796,-59811879,-1060972927,72571336
173163859,-54414399,-1056222086,66104155
207825043,-50003997,-1051135218,48421081
240443561,-46643787,-1045050018,28340660
271550370,-43725347,-1037843387,12291912
300276511,-42648552,-1030001698,-5743402
325557647,-42746404,-1022057299,-22468942
347073558,-43338355,-1014604888,-34060959
363599683,-43228058,-1008602643,-39573621
373112311,-41544529,-1005326883,-36062993
373973648,-40843856,-1005274544,-28636369
365964002,-42391873,-1008216829,-26308408
350058554,-45030118,-1013806086,-23452468
328949554,-46771729,-1020914309,-16117372
303223837,-48732109,-1028860659,-6888094
272983456,-50043803,-1037250392,2956092
239110635,-52889414,-1045378659,11564853
204551914,-54545355,-1052505693,18346372
168969239,-57201495,-1058380501,30489167
132251595,-60709726,-1063039917,41127612
95796807,-62586980,-1066527326,48443894
61559506,-66389026,-1068414483,56700294
32628639,-69866161,-1068877487,66906736
4428168,-73015449,-1068369466,78468631
21979244,77458580,1067451113,-83586533
46160456,79776367,1065987756,-89980805
67239709,83813618,1063633557,-100295614
88094510,86846795,1061125201,-107850846
107106118,89862540,1058901393,-110010531
124311529,93529001,1056068815,-115927277
138750202,96690013,1052984354,-124678411
152038478,97014692,1050529990,-129539988
164907647,98833913,1048016609,-132740169
176107107,100506364,1045933582,-133526043
185369993,100912385,1044328675,-133243060
192950617,102466720,1042596072,-134853807
198738794,105257595,1040836459,-137852662
203514237,106461261,1039494096,-140076708
207018782,106407576,1038901381,-139377440
208623595,106017845,1038572489,-139732198
209183996,105741948,1038651642,-138509744
208186853,105764417,1039188068,-135947693
206082658,106325442,1040105434,-131632161
204599099,106334430,1041158593,-125469062
203366270,105959752,1041899385,-121580700
203099408,106114920,1041839633,-122400730
200344326,107452693,1042042405,-124037099
190952198,107840517,1043943559,-122519519
173309314,104519734,1047879275,-117940813
148874089,99365722,1053289355,-107079329
116996980,95173910,1058681812,-96788076
77821590,92979052,1062995912,-90883379
32524154,88966884,1065514230,-92887021
17030942,-83638903,-1066235213,93693424
66534492,-77494736,-1065376695,86381314
113535960,-70434720,-1062050096,84377277
158794246,-63012245,-1057362806,75623452
203114483,-56910976,-1051678517,48984173
246089986,-53034478,-1043595018,21401033
287490726,-52365725,-1033198614,-5389016
327526253,-53297545,-1020777276,-28649764
366004287,-57554736,-1006587018,-49304509
402216191,-65550194,-991068215,-68048558
437107007,-71543192,-974689284,-81970719
470452926,-74183100,-957595621,-95408068
503346682,-75653017,-939412631,-106508931
534752019,-76266833,-920383485,-118432277
565602924,-75102534,-900080417,-131261919
594813754,-75270132,-879633697,-140345354
620713276,-74452984,-860508326,-147014120
644426761,-73685878,-841699721,-154092633
665572772,-74669349,-823896771,-159850916
685364561,-77579499,-805405537,-168819892
707020666,-77858654,-784366259,-178187768
724904388,-75570302,-767106449,-182366615
739337828,-72396444,-752101917,-188151086
744330663,-71277848,-747227036,-188318999
747294270,-73955483,-743549264,-190099001
744905791,-74313987,-746969480,-185877449
742801813,-74299355,-750566802,-179708785
738949229,-73809501,-755615881,-174557992
730824167,-73784459,-764534392,-169863660
718722240,-74567912,-776823815,-165360925
700794933,-75053456,-794016816,-160350320
678548313,-74732121,-814493039,-153328649
653027016,-73677577,-836389825,-146625942
626112847,-72616871,-857718109,-141213457
597913395,-66967508,-879572025,-131487999
566778176,-60685814,-901724530,-122041424
531478254,-59015096,-923558307,-118362259
495876482,-58216227,-943323673,-117385392
459268198,-52546470,-962818124,-110513588
421619550,-51286304,-980550482,-105113148
384731759,-47181898,-996450245,-98811559
343552136,-45647291,-1012679288,-85383826
302560718,-43615327,-1026327150,-78285085
262807818,-40263141,-1038332049,-64022681
224299752,-39686331,-1048595269,-38514550
186381889,-38854983,-1056591394,-16976164
149108711,-42628705,-1062471409,5037563
112325250,-48240805,-1066393824,27953784
76449038,-55843255,-1068201381,53892098
42882992,-63048616,-1068355599,75655414
9757998,-71244199,-1067819365,86673833
20586623,78830048,1066196886,-97507537
48224288,84601938,1063998221,-106518639
74221790,88551891,1062125293,-107056308
97459271,91589886,1059536465,-111431298
116576452,94608179,1056530934,-118840569
135220413,95917149,1053512664,-124691270
151819283,100209150,1050031273,-131395522
166472323,101675402,1047013977,-136500094
178070694,102608008,1044551712,-139984469
186457556,103331803,1042679165,-142470211
192277361,104123879,1041436881,-143242301
193966137,105044119,1040817707,-144785423
193301203,104685220,1040663876,-147023209
193424987,103567350,1040955739,-145578846
190488600,104254729,1041794886,-142928542
181687196,103362433,1043909578,-139569134
167312621,101730873,1047232160,-133729555
148922342,98924536,1051050034,-127480923
125893542,96050667,1054989876,-121831656
99149160,91992682,1059388117,-111017298
69580551,87099085,1063540312,-96828435
34483638,82933227,1066634636,-84528178
4675153,-76877296,-1068505868,72696225
42960881,-70314282,-1069107588,56042262
81628947,-66789841,-1067602300,44973775
116068381,-64616606,-1064835798,37403377
145942365,-62887733,-1061595109,26139783
169330252,-60103608,-1058508157,14028340
186415481,-59751349,-1055723218,7001028
198496168,-57910610,-1053624616,6411345
205671057,-56025396,-1052351359,6220150
206421708,-54830104,-1052256864,7793023
199576207,-54129177,-1053595605,9857796
185639255,-56063454,-1056000299,13408106
166129605,-59625161,-1058984688,17851789
142167698,-62864017,-1062065173,27848425
114588355,-65885585,-1064663164,44072402
83425484,-68217718,-1066984856,53397996
48924158,-72233260,-1068496325,60215255
14841184,-77255692,-1068227789,74981293
16688533,81914064,1066753862,-89270842
47466961,86613330,1064829980,-96455368
75419881,91134413,1062058730,-104685755
100367233,93009385,1059132909,-111510805
122681723,98090041,1055840102,-115977250
141331480,99941093,1052810513,-120618080
158375403,100857160,1050343143,-120189337
171687042,102463696,1047637213,-124106892
181571234,103924175,1045190344,-129342711
189652036,103178105,1043781939,-129719222
195607120,103775049,1042395594,-131534393
197786039,105551386,1041281433,-135621622
197263582,104104542,1041419743,-136437197
196250256,104661299,1041326634,-138173244
193658821,105168594,1041735753,-138361523
187383381,104583840,1043407293,-134805081
175730584,102107523,1046299437,-129891526
159018735,98594171,1050178141,-122634765
136682899,96708552,1054139316,-116948855
110792124,93703294,1058380037,-108155858
80815858,90377714,1062595144,-95465650
44740309,85081250,1065940141,-86328487
5476472,78037821,1068321013,-74106857
33581205,-70539188,-1069215350,59971375
72134209,-64554036,-1068214694,49682045
111538196,-59579412,-1065461560,41499817
150110291,-55727435,-1061331670,29290120
185470480,-55084961,-1056067556,14460576
217561054,-55675550,-1049993909,1148772
245683340,-56252716,-1043697901,-9566652
269324207,-57106654,-1037705090,-17045269
288916494,-56710128,-1032378362,-20679474
302153025,-56367844,-1028541565,-23446685
309311828,-55862569,-1026321291,-28116825
311871316,-54609625,-1025637048,-27246076
307738028,-53520564,-1027017821,-24247656
296854132,-54552918,-1030182010,-23411156
282274047,-54786282,-1034381210,-17229194
263939871,-54720410,-1039333454,-6990125
241406529,-55314499,-1044788415,1360418
213866197,-55923756,-1050725753,5528130
183070466,-58390603,-1056334953,12384007
152174989,-61182856,-1060872872,23866122
120020461,-64872523,-1064224132,41655016
87230537,-71491741,-1066289670,56812067
54955308,-75967290,-1067381470,69477628
24958764,-80889311,-1066917982,86264162
3132730,85581254,1066030684,-95739861
29083364,89016971,1064783979,-101915250
52838938,93703486,1062545500,-111113759
74153876,95810928,1060559721,-116000218
93680769,96629401,1058869254,-116636527
109961325,98661776,1056820382,-119274262
123939893,99872216,1054745337,-122874825
137451481,103099364,1052402143,-125892031
150088527,104933496,1050386056,-126779342
160954752,107870902,1048159803,-129382262
169710833,108903031,1046323858,-132159907
176752969,111182129,1044603463,-134618099
181690364,112685688,1043134496,-138136721
184873842,113696142,1042089405,-140946528
187380191,115838349,1040955144,-144236016
188643451,116667547,1040356773,-146224560
189289126,116756498,1040163604,-146689876
190705516,116392730,1040362882,-143695039
191015329,115989002,1040451202,-142977262
189942446,115317588,1040705847,-143096180
189894225,114629192,1041248477,-139726260
189984675,114663429,1041591456,-136991883
190446747,114121334,1041644610,-136393332
189094245,113195731,1042004003,-136300182
181165592,111604199,1043598893,-136181733
165515463,108140744,1046876590,-133720106
144039911,102579279,1051132283,-129508394
117397189,96864801,1055912182,-121680145
85801564,91987707,1060264437,-113741734
50391676,86712939,1063828992,-105503206
13103591,81659681,1066326088,-95027218
23306219,-76729004,-1067312661,85642685
59114627,-71204868,-1067088025,75365621
94451228,-65136277,-1065774446,62305391
127109741,-60610967,-1063220303,51512309
156144536,-59288661,-1059866273,41330616
180861625,-60047715,-1056261846,30244138
202353407,-61786443,-1052412305,24194615
222295586,-61348314,-1048419756,23602446
239805049,-60126180,-1044604482,24522143
253197002,-58598444,-1041570399,22585639
260618996,-57741836,-1039903802,16275300
263367498,-58763568,-1039245751,8609364
262588414,-59314005,-1039422449,7179804
256959225,-59026703,-1040801091,11872492
245565203,-59409326,-1043469727,16145991
229572813,-61224158,-1046948624,19176333
210577940,-62905615,-1050784912,21733725
189860884,-64281119,-1054547538,25918565
167029598,-66026533,-1058222133,28792338
142482472,-67233953,-1061594161,33431788
116772104,-70231181,-1064170094,43535550
91618078,-73339004,-1065820474,56353009
66806051,-76090886,-1066968283,65169394
43106820,-79269236,-1067569446,71240260
20640253,-82201265,-1067569184,77681884
1683646,85711749,1066902677,-85386452
23592914,90360717,1065625951,-92957812
43557472,93046467,1063869269,-102707284
63029390,96332985,1061983611,-108901642
81333505,99940362,1059494146,-117432592
97487805,104065244,1056822641,-125355212
112218960,106134097,1054835946,-128003583
126060723,108378599,1052556348,-131944737
138321943,111981484,1049828584,-138233581
148939579,113817384,1047717757,-141674252
157508502,115666281,1046103058,-142833596
164700357,115686798,1045052053,-142400838
170694071,117155540,1043931581,-142360331
174821179,117950893,1042918403,-144110552
178004824,117830698,1042308693,-144721472
180576926,118070080,1041693306,-145762825
183307081,118812816,1041195712,-145309046
184715164,119377669,1041158062,-143319780
184430083,118463178,1041292484,-143468959
184435834,118306276,1041475078,-142260577
183384139,118499204,1041757517,-141388423
179216574,118631976,1042770115,-139139740
169762968,116593925,1045068764,-135422166
155631731,114093718,1048249610,-129827706
137512426,111301560,1052073366,-121512911
113696000,109816739,1055978480,-113332937
82812415,108191320,1060230433,-101339349
45742641,107431579,1063728530,-88142860
996580,106575065,1064906834,-86808426
50346642,-103999708,-1063678440,90326952
104055015,-98897517,-1060961735,81691707
155874544,-92725018,-1056215138,66602006
209280131,-85988901,-1048122151,56295447
265590091,-79608416,-1036345264,45104298
317560641,-77203936,-1022493840,24925419
364918054,-79826793,-1006668744,268734
409244424,-84122747,-988903830,-20810497
451708863,-87966838,-969267225,-40759026
491849495,-94990442,-947514118,-64802579
527416775,-103937578,-924960340,-91641820
561568924,-110444678,-901550780,-112072222
595518183,-109835064,-878163333,-122657003
628050411,-104431254,-855211240,-127164312
658172732,-96091712,-832403864,-132661803
685217162,-86160191,-810229252,-139656061
711944472,-75048292,-787345447,-143218270
734709893,-69121206,-765675141,-148602924
748320200,-69205482,-750771203,-156497362
753322887,-70568889,-745198298,-158510723
758674195,-72132235,-739852568,-157318468
760272558,-75493654,-737893102,-157221062
758503708,-77139123,-739833438,-155846105
755709972,-77894030,-743477641,-151528140
751243605,-77953250,-749216859,-145436912
742534787,-79291746,-758724120,-140047369
729966217,-81967122,-770632448,-139535315
712056602,-81936767,-787496963,-137955787
688058103,-78467610,-809138501,-136510769
659262546,-75161426,-832988901,-137016603
625843997,-74152263,-858111368,-139204706
590865053,-69363660,-883405783,-136318600
553306099,-63289125,-909098475,-127696771
513088087,-59329122,-932933551,-125580799
473609736,-55218820,-954351589,-121568962
435491162,-48022609,-974444848,-106856604
397573129,-40974416,-992507136,-90012733
359127576,-35675372,-1008600622,-73491101
317593865,-33750542,-1023477138,-58392881
277773507,-31949079,-1035861764,-41620511
237111139,-33508990,-1046572191,-16234375
195262999,-36855691,-1055138334,10883151
152418248,-44409619,-1061415951,33377274
109310132,-53005607,-1065393045,55684191
71194744,-64666851,-1066693998,76386699
34427295,-74209311,-1066451278,94397641
948009,-82700731,-1065130786,107599283
29591755,87065427,1064081303,-110437424
54972070,90234958,1062689861,-111568096
77506927,92824553,1061024823,-111910805
98418495,95324347,1059303263,-109658773
114507844,96475287,1056838527,-116594294
128447506,97018254,1054616268,-121632072
140148407,97136243,1052924224,-123266129
148891426,98375381,1050998985,-128359847
155922226,99264269,1049496293,-131580524
161007657,100191009,1048324392,-134073016
165098058,101647902,1047276199,-136177608
164882871,101518402,1047212555,-137021735
165194618,100515112,1047518896,-135029843
164258333,101562918,1047618714,-134612883
161823981,101629448,1047840369,-135780569
158032317,99971780,1048796173,-134086226
151818275,98990790,1050371781,-129586194
143605002,97726256,1052248520,-124586280
132359792,95795580,1055104656,-113928747
114937667,92095602,1058850961,-100318572
89885156,88109859,1063127765,-82693244
57143130,83278855,1067023625,-64663465
17058816,78328992,1069577005,-50001026
25852267,-72299063,-1070416355,35140274
65456204,-64476026,-1069574558,22137923
106784173,-57735724,-1066829784,7708261
148282946,-52403252,-1062161549,-636478
183427275,-45782790,-1056949787,-6061439
211151629,-40724438,-1051884563,-14725452
229992299,-38208518,-1047943768,-19461733
237018842,-37357177,-1046435350,-17916953
233623809,-37026397,-1047264054,-14434206
220877602,-38762280,-1049984835,-12762904
201900849,-40828943,-1053772842,-7303928
180000956,-44085294,-1057627218,1522203
155512286,-47278941,-1061296973,12266848
128539179,-51635369,-1064398975,28061532
98765142,-55102680,-1066868647,43837798
67426400,-61594481,-1068319075,57230679
37066580,-68013005,-1068636510,70269591
8912835,-73042882,-1068177363,80646926
18588404,77319360,1066762561,-92818816
43240449,81823026,1064647361,-104320466
66014843,85143077,1062045888,-115640532
88148708,89482881,1059131163,-124037514
107969247,93880495,1056131129,-130528075
124651219,98056106,1053226599,-135949664
137437445,99652063,1050915190,-140282363
147695892,101271480,1049288717,-140871206
155421741,102320995,1047752418,-143214840
161547824,104902763,1046300920,-145166906
166751168,106406169,1045339492,-145115783
171243361,107803773,1044373629,-145805619
171535475,107357125,1044007053,-148394072
171911774,105631245,1044584762,-145094997
169906644,103909598,1045477208,-142244259
163639112,102847350,1047053652,-138725351
152208789,99806258,1049994366,-131546330
135643434,96283453,1053680619,-122511278
112594290,95557018,1057466924,-113474397
80829657,96603176,1060991185,-106553098
39145337,96858670,1063638189,-103350436
9223302,-94490422,-1064670907,101901211
63332771,-89146166,-1063651942,98020273
121111510,-79895494,-1060101049,89755112
176538696,-72024807,-1053736111,78792330
229124463,-66079876,-1044979316,63834638
284560787,-64052967,-1032197401,49116258
336451257,-66254302,-1016772727,38801492
384234644,-69963288,-999788925,28503789
429860821,-73612451,-981084807,13939071
472902559,-78496863,-960792575,-535927
511700583,-85515334,-939917209,-17847475
545125087,-93128523,-919262286,-45210181
575313445,-108751273,-896667333,-78081967
606316254,-117228145,-872924651,-97780771
639872715,-108547146,-849836518,-97343274
670748401,-100318464,-826187352,-101824917
698239153,-94936395,-801321868,-119389749
724557248,-85909864,-776828338,-130692697
749950296,-78087701,-750949557,-143084067
769222650,-75054823,-729277057,-154076768
778862491,-74181218,-718162354,-158217739
782412112,-74101679,-714035518,-159409416
781729458,-73269726,-715450156,-156779937
776174353,-74001552,-722110494,-153473342
770314675,-73657159,-728998371,-150574313
763433921,-71355047,-737537877,-145039610
752651403,-69407316,-750054814,-137977352
735567720,-68658152,-767537477,-134277816
712558740,-67005871,-790009284,-128752048
685574094,-60799563,-816143916,-114551652
654872782,-53871360,-843115282,-101568322
620197442,-45305927,-870643753,-90543856
580405559,-40106822,-898284924,-86755456
537094631,-38154101,-925088002,-84895028
492634730,-34865825,-950343252,-76580620
447261461,-31329497,-973256164,-68311111
401837438,-32552832,-993293479,-61290753
355713358,-31767758,-1011028117,-56590359
307921976,-31797511,-1027175275,-44772703
261299759,-32586980,-1040567050,-28319956
216762109,-34895354,-1050996308,-11156040
175484272,-38988794,-1058570322,5960156
136546871,-46710000,-1063760350,22550833
99821940,-52500327,-1067038109,40379159
64828012,-57853883,-1068677878,57439702
32971893,-64052577,-1068865464,72513772
3359632,-68879329,-1068393667,81858593
23499681,74675363,1067040889,-90645476
47823680,77907365,1065122546,-100393260
68520858,79321243,1063444753,-104975188
86648526,81054508,1061143697,-113215545
102846418,83226841,1058799181,-119840336
118253955,83391204,1057071276,-120763060
130169818,86946393,1054812476,-125651094
138199976,89985697,1052487545,-134144375
144751448,92043699,1051079898,-136848564
149199607,93047769,1050198381,-138153669
151635740,94746909,1049391876,-140455504
152932370,94789655,1049210743,-140373788
152457001,95371666,1049557707,-137880838
149027845,94094902,1050291432,-136916931
143660538,93086377,1051309151,-135525463
136375779,91739847,1052596746,-133966547
128013366,89905382,1053888283,-133304559
120192851,87717113,1055258098,-131191592
113271126,85325438,1056504853,-128872422
109678865,83604762,1057405735,-125679109
109286956,82944817,1057940978,-121896584
112280382,83343605,1057951230,-118774953
118285909,84503241,1057387598,-117134979
126492438,86691368,1056156938,-118060569
135751302,88450788,1054680473,-119660543
144084724,89451015,1053356916,-120825583
151116082,90014317,1052332968,-120739910
156621507,90137516,1051440703,-121401307
161493219,90557774,1050605842,-121934105
164457197,91050807,1050048901,-122402269
164798307,90718129,1049951670,-123023037
165473090,90349443,1050043769,-121594277
165446414,91036273,1049918739,-122196449
165930876,91315724,1049903319,-121461354
167109166,89826733,1050218913,-118183723
166003831,88357368,1050453549,-118762382
159408327,87585992,1051229744,-121469815
146240261,86356763,1053459675,-119584743
126236452,82859601,1057104936,-112469131
97111015,80493947,1060851134,-107733626
58795608,76158058,1064400177,-103521929
13402250,70708140,1066935733,-96904006
36935895,-64335794,-1067544667,88127940
91032757,-59625296,-1064926755,83727078
140154100,-53571394,-1060060360,81730961
189588138,-46915514,-1053524627,69731550
236779779,-42484192,-1045040882,54234956
278371134,-39065260,-1035289053,45612427
312401241,-36339218,-1026005141,36301617
337354430,-35418346,-1018461226,24406711
354341934,-34007402,-1012887242,16316588
363873408,-31944886,-1009628614,12027615
365894575,-32718616,-1008913550,8006181
360483832,-32911952,-1010851822,7927537
348738649,-33463037,-1014871906,14768003
331497957,-34924387,-1020482588,20639215
310054904,-36683938,-1027046970,24798475
285309272,-38824920,-1033968290,30369829
256681437,-38745647,-1041305721,34867344
223886109,-39814053,-1048667657,38816727
188395843,-42557892,-1055373166,42483146
150622672,-44979050,-1061134682,46950447
111651761,-51240002,-1064964275,60666787
74355511,-56868810,-1066794775,78151172
38375678,-64328524,-1067294992,90509911
4420887,-72290703,-1066493962,101324455
27322974,78841272,1065066051,-107672257
55021938,82938462,1063261279,-111761821
79952733,85450853,1061030808,-115934365
102040875,89053286,1058407405,-119801678
121331851,91866712,1055589466,-124464736
138192585,93812039,1052881193,-128314885
151577540,95580651,1050509354,-131301637
161654488,96540366,1048596880,-133842095
168899321,96388497,1047147184,-136332459
175290296,97133325,1046073322,-135979920
176159879,96718540,1045718951,-137864435
175933272,96799981,1045809064,-137412352
173274669,97222243,1046161980,-137805440
167808202,98350392,1047336137,-134818782
158430254,97182894,1049505276,-130058258
144276132,94424704,1052772292,-121903154
124305435,90509401,1056712842,-112408552
97119836,88390869,1061046953,-99275589
60408561,85456876,1065026914,-87676145
13784721,81570660,1067249278,-84004103
40632654,-75294604,-1067177216,82060933
97616259,-67512025,-1064456544,75940248
149477198,-61755912,-1059161461,70294066
198059335,-58964878,-1051815789,62447763
249488918,-60063256,-1041645702,45204215
298130110,-64058876,-1029189278,26566063
344942793,-67813452,-1014477534,13138777
390362074,-70584053,-997775578,-272071
433802013,-74935934,-979248385,-13900448
474329742,-81320200,-959367526,-30554200
512860852,-89039085,-937385151,-57179500
552332324,-94003409,-912584870,-78748208
591797893,-90429242,-887328816,-84656496
628192023,-85470073,-861317123,-95459652
662955978,-81741177,-833858547,-106809880
694681312,-72999635,-808361818,-107524727
721242699,-68160328,-784645437,-111332486
742459933,-69041859,-762838272,-122412702
759137724,-68072987,-744789892,-131474215
766208361,-65206549,-737450620,-133270080
766234230,-64273362,-736921365,-136463984
759706738,-64788434,-742572991,-141966063
754966235,-63281043,-747044753,-144454608
746167738,-65464004,-755357504,-145960243
734517272,-63693232,-767166432,-144224528
718589277,-60956995,-783785149,-136073666
696029758,-58133823,-805502443,-127476750
667511317,-57255553,-829795868,-124539911
635653172,-58783223,-853774939,-128351595
601958425,-55989226,-878219156,-127134640
565593112,-50659918,-902869285,-123638853
526521169,-47706213,-927028237,-118488294
487271025,-41629803,-949744253,-108356965
447077827,-33815685,-971114711,-93980887
405933033,-29297398,-990694169,-76201065
362898588,-26623099,-1008481802,-58979151
318097762,-25259838,-1024362679,-42155396
272936226,-27583845,-1037830510,-23963431
227208228,-32831711,-1048913501,-203890
181694981,-40438942,-1057280087,20766015
140636512,-49475043,-1062739431,35766990
101406508,-58406921,-1066243933,48484359
65216745,-66930643,-1068032072,59127375
33855227,-73011361,-1068784408,64378261
4416878,-77967958,-1069021963,63364319
20947713,81307437,1068487856,-64849841
44500476,81036870,1067353817,-71624499
66861685,81331230,1066141171,-71965798
87082891,80585194,1064701966,-72483280
104375149,82078253,1062548364,-79255694
121389161,81551283,1060605955,-81551037
136680672,80212894,1059134896,-77711314
147025045,79547668,1057703475,-78997877
154744022,80600045,1056284192,-82114800
160744211,80473995,1055315734,-83157869
164812260,80174817,1054731285,-82899162
165431537,79924231,1054549963,-84204205
165637585,80374587,1054421906,-84970660
165754792,80671817,1054548957,-82857462
165786438,81602198,1054663470,-80388793
165300863,81558318,1054943380,-77715999
165812616,81467712,1055063485,-75044564
162930307,83402211,1055212148,-77113527
155131172,84094885,1056143049,-79657988
141476563,84245560,1058197942,-77625313
117679206,84166041,1061414562,-73405002
82495871,79727907,1065480163,-67166989
33777514,78554416,1068910838,-55130849
27128382,-75474933,-1070070600,37920938
98274970,-75641753,-1066347047,21112346
177779711,-77621396,-1056028304,9747833
264508234,-77867591,-1037724507,-4622167
353303130,-78406828,-1010638579,-23673502
437707820,-79233976,-976615239,-35716716
523831483,-73360082,-932708791,-56516006
599994897,-75721249,-883179429,-84779147
669974851,-60779636,-831005786,-98944197
714676836,-23912857,-793186391,-111543928
740377441,-5109192,-768720894,-117488066
741717380,-7651347,-763928742,-138311711
728106094,-18977922,-775087996,-147144893
711068386,-18950903,-792988893,-134583551
692900200,-30410054,-809774699,-127086335
673576339,-33889960,-826388329,-123084846
652345149,-39281199,-845450476,-105052254
624736923,-40249917,-867629542,-90641915
587878560,-43700108,-893103985,-88180446
548091326,-49771036,-916383635,-101394720
505946644,-48798092,-940191034,-102951767
461910324,-49334777,-962858518,-100145193
417465299,-48625002,-983444203,-95484419
374066725,-48112389,-1001952465,-82292186
330461981,-43780686,-1017716804,-77793960
282181730,-42043571,-1032420910,-75062511
237764199,-41853671,-1044309922,-63676538
190836355,-42216933,-1055007593,-40984154
145376236,-45727858,-1062809840,-11465709
103515192,-52946584,-1067348415,13043373
62712122,-59224332,-1069770734,32737612
24169383,-65788202,-1070329854,49023083
10475048,71650847,1069626683,-59805473
41710110,76244670,1068102672,-67269630
68687869,78292656,1066208206,-72620891
90312164,79371388,1064077916,-78761016
107680212,79117339,1061964711,-85427323
124342456,80624238,1060007956,-85693196
137789440,81512653,1058059844,-88320804
148127255,83179502,1056441025,-89405491
157503326,83675875,1055369470,-85480961
165396713,83736740,1054505281,-81068778
170915558,85838160,1053356959,-82342559
175149637,87479660,1052479362,-82937398
178708596,87818330,1052069215,-80143941
180653541,87930035,1051761318,-79693727
180611184,88413806,1051596413,-81412009
180409402,88488978,1051639500,-81220324
180748827,88855538,1051691864,-79367353
180252977,89637378,1051665037,-79967493
179051953,89285160,1051862614,-80468047
177366152,88958262,1052126322,-81113404
174738599,88945726,1052521678,-81698847
169809584,90095956,1053200567,-82082169
159440241,90097022,1054939722,-80527833
142548886,88747270,1057893482,-74743721
113667623,86619785,1061860122,-70364519
74388824,84758926,1066001071,-62011656
22003632,86286950,1068444251,-58470428
46702633,-90906267,-1066003071,78191253
125396910,-91482331,-1058437098,92406782
209597904,-89443789,-1045376499,90432215
301215431,-82253686,-1024425020,77319484
389621718,-71126757,-996210289,60182770
476984201,-58506283,-959565524,34906180
555330530,-54658416,-917353883,918620
622036577,-60195742,-872238302,-39528217
684481535,-46904754,-823253666,-66781422
737626431,-29552843,-776184277,-74101176
769466487,-22634956,-742912344,-91714820
785347576,-24836759,-721357451,-123171874
789141765,-28835007,-713475965,-142432456
785661774,-22513027,-718363510,-138195046
774255301,-29967117,-730969969,-135035134
759165262,-36156726,-747644228,-127712135
743871654,-44457905,-763562639,-120712217
718045165,-55812290,-788063588,-114775507
686664942,-65140046,-815236315,-112067810
652050120,-69193281,-843934937,-103616620
611817168,-70833783,-874137122,-97293166
569121178,-77697933,-901382414,-102446883
526449158,-77492929,-926976816,-102378496
482338785,-76986405,-950972254,-99977956
436506568,-78524320,-972783700,-99535743
392216133,-77691145,-991808307,-96783754
348096581,-75075916,-1008414900,-95985755
304689360,-71270544,-1023202198,-89795657
259253436,-65862768,-1037251727,-74023681
214623620,-62540341,-1048693723,-56464446
170185433,-60546740,-1057842863,-35510328
128896405,-59408752,-1064208288,-15436123
89871788,-59217357,-1068333614,-1077599
51211717,-61626254,-1070703756,9723055
15528263,-65326948,-1071382191,23515316
14160487,67581186,1070805125,-39117165
42166888,69218031,1069634083,-47278454
67557094,72254435,1067772671,-54757337
88220024,75547422,1065367437,-66509740
106346930,76846606,1063335758,-70876518
122788988,77501949,1061519458,-70811428
135714673,79591962,1059358163,-76996316
144705795,81918021,1057644692,-81601960
152176524,82676097,1056299579,-84614295
158127439,84576036,1054930349,-88801318
163733367,85959324,1053994541,-88426793
167605196,88310052,1053069306,-89868497
167160508,89581716,1052538012,-95486579
166724999,88821309,1052664403,-95565015
166176795,88724502,1052907997,-93911902
165914600,89333843,1052895639,-93936368
164453760,88816584,1053506818,-90063246
158252279,88488855,1054853611,-85620777
143549198,86155830,1057862833,-76279313
115776378,80760642,1062825310,-58286951
71404186,76353489,1067685936,-45164535
7512308,75872589,1070221259,-41651877
71142135,-78712641,-1067850528,36876457
161996132,-78263589,-1057999653,34498571
259003935,-75350617,-1038873354,30037204
355362310,-65527291,-1010996665,15200374
440081711,-54317959,-977903215,1085019
525682228,-44299735,-934924772,-23077245
597043598,-37755727,-889479038,-62142152
652593156,-47391124,-844372878,-108767727
704757850,-54394209,-796397728,-137948529
745347084,-41817488,-758611298,-141911984
771854953,-25591551,-729582834,-155611987
788405420,-23125473,-709898032,-163826244
789164872,-13915011,-708845829,-165752452
777180209,-11667825,-723607307,-158642581
754854566,-16716358,-748150375,-152012061
727985190,-15295952,-775205752,-147550524
689353419,-25635112,-811390891,-136751454
640582068,-29129868,-851698159,-127804080
587464740,-30174022,-890875012,-115055836
531116305,-28496221,-926719092,-105908648
478395032,-24711062,-956783513,-89522290
427521026,-16837382,-982443299,-68326283
376153656,-16206875,-1004220742,-52038116
321497518,-10986491,-1024095113,-25855416
272170857,-13207832,-1038588383,-2057907
219533975,-15896454,-1050733315,20795014
170278940,-26426292,-1058804945,46479214
118072606,-32061994,-1065306700,55443770
67296775,-43931962,-1068498458,69091032
19675762,-53777296,-1068935219,83784596
21596770,60405106,1068334625,-86414340
54832643,64565194,1066988414,-85334076
81312047,69699362,1064631168,-89511448
103668625,72454572,1062276147,-92163132
122714212,75736354,1059767841,-94967652
135200739,77674728,1057765535,-98696382
144676542,75806370,1057130222,-93377144
151315554,72988524,1057065658,-85498053
156058811,70464858,1056884111,-81224024
158677731,70270928,1056615309,-79803629
160619914,69205429,1056715815,-75397782
158787171,65357491,1057668094,-69097037
150284394,58136625,1060111504,-55855184
131110502,49693395,1063676018,-43074396
102051198,39397088,1067812623,-27039415
66088852,29658137,1071278466,-6050663
22808101,22686991,1073240173,6490000
22877831,-18797402,-1073249581,-13420166
65364899,-15353187,-1071493293,-17757432
109428502,-15034003,-1067864995,-19623816
145822528,-12116577,-1063541438,-19750742
172870007,-9433695,-1059425109,-23809820
188093896,-6501446,-1056620911,-32437225
190984697,-6759518,-1055936646,-37395997
182915545,-6778551,-1057489967,-33645896
166098444,-7568898,-1060463715,-26309475
143327092,-8070855,-1063937270,-18740238
118445380,-10024448,-1067106740,-8654413
92445318,-13327804,-1069669235,2332729
63228672,-18276916,-1071625216,14456534
31684453,-24328141,-1072659010,26988726
1189615,31483290,1072733294,-34237013
31587230,40982465,1071792310,-38799938
59377850,46482159,1069996617,-48398571
85517676,52811001,1067651441,-54218349
108554217,57928752,1065119008,-57473126
125494505,62603891,1062729615,-62122079
137541487,63888026,1061167197,-62018523
144180650,63790808,1060507073,-58214484
145417304,62745472,1060534067,-55729804
142200215,60767094,1061364058,-50142810
133650875,58741832,1062717991,-47306190
119617892,55538641,1064695865,-44172755
100622428,51688913,1067122957,-37060538
77745174,48671392,1069321664,-32547946
53514413,45069691,1071161848,-25272971
28787195,41702105,1072403241,-17464912
3774013,39228558,1072930187,-13754875
21347185,-36916784,-1072838880,10940428
42178804,-34524308,-1072345153,5137969
57213691,-32432171,-1071723085,-2421300
65443151,-31397466,-1071263042,-6955828
67255695,-30831158,-1071162292,-7674306
62735266,-30164456,-1071464516,-6299918
51996108,-29337788,-1072063635,-6063601
36470354,-29443539,-1072706717,-4979587
18674041,-31215088,-1073123294,-2190937
516030,-33468083,-1073218917,1511014
17141378,35634780,1072990570,-7005594
34963999,37745289,1072424209,-13439053
54044266,40769646,1071432231,-19274812
72203675,44058300,1070033721,-28192867
89999392,47824837,1068320154,-35020704
105702237,52215690,1066437443,-41632119
120126537,55699909,1064318421,-51136434
134966642,61964790,1061763656,-59361743
147638191,67004892,1059388105,-65815274
156267758,71588053,1057389764,-72824440
161862983,74402584,1056030423,-77367461
164913735,75670523,1055225709,-80607534
166540698,76957848,1054546504,-84822301
168706655,77883290,1054020898,-86218858
171824912,77989081,1053515644,-86140530
174384564,78372243,1052965541,-87366403
176965078,77926309,1052539215,-87712931
179627290,77869939,1052121786,-87358815
181842623,77987429,1051711581,-87605962
183105876,78225000,1051379807,-88739795
183838024,77923659,1051225414,-89319090
184022184,77841206,1051072170,-90803025
185050427,78027279,1050985991,-89542984
186749366,77608390,1051012178,-86002935
189438397,77278899,1050924530,-81362086
193203873,76445027,1050675676,-76357873
197313787,74911744,1050476327,-69827175
200535997,73729447,1050202298,-65923612
203385768,72729558,1049839162,-64061526
204174022,72289875,1049723677,-63944110
203669977,69362771,1049956388,-64964879
198964114,67286412,1050871903,-66888552
192139841,67839434,1051860936,-70641094
181362527,70829895,1053589840,-70426342
161102322,70451437,1057175753,-66207071
131172615,68375718,1061637116,-62981072
94238004,65481082,1066065530,-57072054
51255456,61416422,1069337600,-55131694
6167211,58900462,1070733192,-54264511
38238965,-54955374,-1070441084,50941852
85692106,-50495650,-1067919823,50752426
128094205,-44360744,-1063991315,49674168
157152574,-38242729,-1060723062,40347381
169906777,-38085735,-1059136010,28871612
168964482,-40079476,-1059229596,28262905
156364479,-41057058,-1060893962,35908527
133488547,-43639629,-1063652122,42919238
102439452,-46800512,-1066694769,48986186
67880780,-50280620,-1069136030,52284935
32408848,-53064720,-1070454040,56422037
2261466,55918820,1070274058,-65596635
34567780,58840377,1069075553,-73087897
65211640,62905146,1066954181,-79502511
93164350,67442787,1063877063,-88650819
117162379,69074274,1061134555,-91742344
137702875,72362472,1058231122,-94180306
152402861,76267499,1055214236,-101985065
163551811,77886313,1053280865,-103466677
172043831,80119597,1051744251,-103620952
179336791,82642813,1050159730,-105330564
180947448,83211043,1049667781,-107013940
179982496,80346375,1049855692,-108973816
179516921,78158158,1050518537,-104867950
179034552,77889085,1050905207,-101978776
178164946,76834603,1051108378,-102207531
177198275,74807481,1051597599,-100342449
174554482,73195767,1052328393,-98486393
171116619,71044568,1053007732,-98833132
170165093,70305118,1053313284,-97742781
172604295,71605007,1053022008,-95638036
177280569,73725084,1052187390,-94654179
180843987,75223969,1051598226,-93265324
180849652,74101918,1051337394,-97017717
180618161,73434834,1051303166,-98317823
181285192,74205325,1051217513,-97424946
182237214,74393495,1051177250,-95929912
184761758,74052451,1051347313,-89272324
186359064,72205424,1051485657,-85767532
187066506,69437480,1051572201,-85451509
184221435,70032487,1052043561,-85343988
176008789,72016092,1052925086,-90026982
160545714,70769675,1055729157,-87028488
138375791,66852515,1059383774,-83727451
111731737,61546616,1063378193,-76654102
81000842,56365949,1067307709,-63541061
44712989,50527452,1070363360,-51879746
5990452,45338076,1072042162,-39442147
34495527,-42149898,-1071961653,29208907
72682745,-39473936,-1070276513,24263519
109994488,-37467181,-1067307807,16515820
147407336,-36410025,-1062950847,-1543745
181944621,-35801736,-1057510341,-14392160
213218386,-35139288,-1051608574,-18546348
240075471,-35375508,-1045779849,-19450683
259553508,-35203042,-1041148142,-18006733
271745848,-33650735,-1038170151,-12085301
275043934,-30652725,-1037449625,-5553041
267690678,-30266994,-1039395286,-1707461
249857118,-31330911,-1043789568,3825982
224239885,-32518242,-1049535933,7358530
194161346,-33076415,-1055457908,11720178
160529040,-32848603,-1060914393,23093933
122970022,-33387385,-1065602012,34314918
79842732,-34865032,-1069489779,39020723
37130311,-37707700,-1071646024,41179781
1246038,40615276,1071887916,-48235342
35819575,45138962,1070522987,-59845408
66823452,49445678,1068300088,-68890790
93084866,53023178,1065602991,-77042292
116580717,56534295,1062702191,-82452021
136974621,61357418,1059587075,-87578165
153857062,65012780,1056525731,-93680456
165977738,67145526,1054317525,-96326953
171142386,67215636,1053554713,-95584026
170180300,67245793,1053758905,-95028075
164720303,67313047,1054547391,-95850983
156581864,66890146,1056175327,-91773707
143935298,65467297,1058362596,-88242757
127474264,63840625,1060732406,-86268666
110110443,61550047,1062821770,-86130472
95515802,58550944,1064596250,-83694970
87265919,56158389,1065812790,-78711478
85338579,55467257,1066208357,-75907537
89542024,56676786,1065673304,-77665199
98906870,59790993,1064241580,-83388363
111709076,62711480,1062451940,-87779465
126172161,66389871,1060465856,-89479862
138872753,69424479,1058361691,-93201102
150166135,72009539,1056414710,-95781993
159089270,73512734,1054881276,-97124477
165649017,74738599,1053458528,-100603817
170728521,75329599,1052356957,-103167607
174997972,75520928,1051737486,-102186420
179033176,76543189,1051001307,-102009906
182718602,78042697,1050151097,-103087347
185445456,79024439,1049608652,-102996319
185615917,78651821,1049477654,-104301140
185016310,78351639,1049660115,-103754720
184934515,78740248,1049878005,-101374458
185912270,79149448,1050026609,-97660523
187307501,79116441,1050169923,-93386944
188466064,77925565,1050340660,-90078592
190018298,77205313,1050367628,-87072446
191621899,77019644,1050216332,-85534686
192606120,76414767,1050124606,-84991014
192876701,75722818,1050185925,-84235654
193298995,75250052,1050380680,-81208577
194327661,75162327,1050365297,-79003490
194875092,74309463,1050436869,-77495557
194791654,72753210,1050507296,-78223943
188068074,72558994,1051546133,-80856827
172238827,69036932,1054479308,-81009743
145622282,60792661,1059725032,-70730216
108660544,52855561,1065400433,-56943010
59687025,47029178,1069942339,-48688916
2643465,41766520,1072011996,-44275911
57952239,-38064547,-1070642282,42886203
113275762,-36232166,-1066352171,40868865
171885117,-33456701,-1058745085,36283619
225264149,-29585644,-1048906137,33129566
270125622,-25498985,-1038557834,26477926
305871522,-23615517,-1028822138,18190558
331214112,-24714801,-1020982333,14239261
343584953,-24796961,-1016869909,15217141
341204147,-25543328,-1017531950,21851009
323933067,-27789853,-1023004961,26015992
294028619,-30260888,-1031890015,27494201
256090144,-35280516,-1041749916,29151768
213587694,-37762251,-1051034687,34666881
169265331,-37858513,-1058764817,43064305
120185593,-40938415,-1065187802,46646712
70901479,-42860623,-1069300947,51506688
25841155,-47627888,-1070773849,58555016
16856390,51381578,1070274348,-67157301
54354297,54656754,1068276831,-75923276
87250051,58843116,1065540979,-80429126
114093906,63081508,1062020563,-89649558
135901846,67071218,1058518950,-97423181
154952976,68091175,1055724970,-98585721
171481396,70278610,1053459875,-93802128
182039500,70747149,1051380990,-96826496
188621345,72374099,1049813112,-99989567
193604250,73170794,1048656516,-102001993
197604067,74002282,1047901259,-101488836
199531197,74661419,1047449376,-101903309
200249763,74840946,1047185298,-103069508
200834480,73559016,1047426977,-100363415
202553455,72744918,1047720361,-94254050
203910879,72746796,1047859417,-89668296
204057398,72404865,1047831085,-89942406
204140139,71669585,1047988753,-88494929
203986689,71632299,1048086182,-87721746
203308818,72403218,1047982072,-89879815
202399229,72978750,1048025140,-90958595
202406325,72540398,1048323337,-87802374
202411815,72398721,1048545742,-85212764
202316968,72169701,1048344157,-88064823
201236905,71741203,1048176889,-92755717
194941892,71391404,1049120360,-95753654
179963974,68207453,1052440410,-90837226
154585414,62638169,1057657367,-80386172
117901734,54186540,1064071183,-61943566
69003951,46934525,1069567577,-44522909
10659474,40694949,1072295930,-36513571
51384464,-36800518,-1071571359,25723291
113263213,-38201726,-1066996294,12343643
171706988,-42523090,-1059012425,11076157
233523968,-42306689,-1047119526,11780459
291314269,-42482703,-1032594715,-932486
345107727,-44828116,-1015555478,-21439623
394848792,-47141537,-996723509,-36511157
438798937,-47363714,-977570537,-49867703
477329001,-47778692,-957964206,-71415378
512219723,-50135768,-937859818,-91925039
542352328,-46554916,-920348702,-97807689
566651295,-37924352,-905900574,-98659562
590106186,-36694863,-889785091,-107851982
605280293,-31805933,-878979811,-113750326
607707435,-25051014,-877933092,-110533981
597152505,-23768527,-885506889,-107901101
576098846,-21123694,-899373486,-108225410
548549015,-24008002,-916453986,-107474329
513313533,-17458412,-937006696,-105536671
470395078,-11958451,-960471971,-94869483
423356175,-5115443,-983484804,-80139321
375586720,-1566575,-1003269682,-72825830
326562030,297423,-1020719283,-66410645
276228673,234759,-1035896304,-59478110
227687260,-1969769,-1048504267,-41407037
184054365,-7847808,-1057752536,-11970438
140600023,-18248511,-1064306185,8471840
97700955,-29126772,-1068720766,19066596
58444372,-41094736,-1070893072,31701811
24021288,-50311772,-1071392463,43947699
5274119,56695428,1070885377,-53701289
30534675,60006286,1070112733,-56983543
53845305,63641006,1068942998,-57730981
73640052,66968925,1067006743,-67159665
92687461,70090472,1065016575,-71816045
110350161,72478683,1062970384,-74732228
124845004,73572131,1061045831,-78128846
138091021,74213335,1059129951,-81169046
148579652,75651874,1057198453,-86335412
156288882,75636193,1055923140,-88318988
161391169,75611923,1054955973,-90691511
165939955,76316013,1054148872,-91276559
170544965,77637354,1053451615,-89710913
174272526,78406015,1052754917,-90056497
176558255,79031124,1052175867,-91808035
176600033,79380695,1051835060,-95266182
176235712,80005333,1051522108,-98807296
176385135,79635772,1051529182,-98763931
177180608,79518433,1051616609,-96477277
177814101,79264950,1051664296,-94989092
178532273,79272940,1051683165,-93413353
179029868,79304400,1051628439,-93049723
179209648,78957162,1051695952,-92232312
179690707,77983042,1051883088,-89963159
179727348,77169504,1051882711,-90593685
178964162,75981231,1052096853,-90622289
175486478,75969357,1052876841,-88346003
166221646,74838004,1054529386,-87514988
151444244,71400827,1057355622,-82988497
130777360,66291493,1060854631,-77534697
105946085,61880779,1064381913,-70418959
76903314,57506691,1067682747,-61268827
43506179,53801095,1070283800,-51251803
6238755,51513280,1071532065,-45254827
34144244,-50200119,-1071003785,46760208
73625164,-48032473,-1069108195,46918961
112576003,-46873897,-1065983608,41590632
151578277,-43816450,-1061500720,35239200
186393605,-39831859,-1056327390,27654542
212486401,-37814047,-1051724234,14737524
230570496,-38452387,-1047979572,4330583
240393763,-39114750,-1045751111,2640320
243533094,-38944599,-1045033869,-812451
242617264,-38352190,-1045261381,-4014006
237073142,-38530487,-1046533887,11350
226359886,-39943170,-1048842762,3951090
211320709,-42951709,-1051852847,5074980
193436785,-44677279,-1055183646,9751680
171487059,-46761399,-1058761727,18726065
143852447,-48745016,-1062655028,24823251
112446893,-51415846,-1066232779,27948384
79308926,-51967949,-1069080408,31589959
44538161,-54783007,-1070526385,43702860
11341897,-56604614,-1070676325,56929687
20247038,60246759,1069809091,-66260078
50488555,63779348,1067670275,-79904885
78202027,66544054,1065181536,-88124879
103217435,69739790,1062270800,-94788049
125965958,72192124,1059096139,-100785655
144640357,75143742,1056042724,-105488649
159632490,77024119,1053293871,-109899961
170958288,80649128,1050421085,-117499035
177867978,82158734,1048758840,-120993086
176762239,80945491,1048974059,-121564252
176233671,79861469,1049133574,-121672051
176016176,80215207,1049391484,-119510861
173242151,81254262,1049773855,-119504221
165597193,79652022,1051016077,-120498060
156066849,76290899,1053364918,-114744066
142520553,72986142,1056018307,-110035253
124321514,69865656,1059069564,-104671470
102169765,66470592,1062498630,-95713982
74455673,63085558,1065699151,-87654923
42153785,59683899,1068249267,-80161703
7434001,56320085,1069674442,-74100459
28898906,-52475587,-1070045524,65842574
63269891,-48820166,-1069316031,55661874
98302061,-43989347,-1067294477,46963154
134136762,-40794523,-1063730486,41738176
168162308,-36751115,-1059194031,37420332
198369374,-34415477,-1054218529,31762150
224705393,-33416162,-1049022799,29374369
245534956,-32209022,-1044405027,28544787
258098466,-32440214,-1041382175,27866181
262333174,-32411428,-1040294030,28991748
258437645,-34451196,-1041265175,26656996
248425045,-37306123,-1043670395,23808838
233046665,-39400312,-1047004555,28977521
212250690,-42953453,-1051123517,34138478
188767705,-45345483,-1055361907,37990687
163488574,-47512056,-1059232333,44298542
135539974,-49531006,-1062827349,49951241
105238645,-53125958,-1065753410,56512176
75023245,-55743243,-1067763075,63778658
44086917,-57454947,-1069079176,68894805
13922114,-59626377,-1069308220,75843924
14904825,60313048,1068511809,-85698322
42889477,62363202,1067383353,-88800944
69615623,63697020,1065454971,-93933489
94266211,65678718,1062792535,-100963957
115298722,65402589,1060463370,-103767026
134257352,66611654,1057900901,-106325144
150344058,69479560,1054964751,-111982570
164097111,70100944,1052627427,-114258112
173006711,71218743,1051154132,-113987116
175847491,70931119,1050519804,-115655013
174828976,71213706,1050674140,-115623501
169430768,70970675,1051573625,-115632093
161323753,69892780,1053065211,-114300617
151100991,68095176,1055246930,-109118754
135907562,65235233,1057861044,-105475183
114409255,61090586,1060604560,-105914381
88231908,56848634,1063888002,-100235665
56531871,53604518,1066598706,-96017588
20521214,49946839,1068098052,-95771857
17983274,-44986513,-1068731658,91580378
54232286,-38612684,-1068420975,83462715
89263177,-32885327,-1066816274,75994630
126129067,-26435961,-1063681204,69974288
161179739,-20971374,-1059600933,61224771
191879850,-16464008,-1055150262,49904778
217381381,-13472602,-1050692117,39128346
234201121,-14647798,-1047316690,31375557
243090772,-16638578,-1045338253,28626327
245341434,-18534182,-1044844218,26193984
242583361,-20222729,-1045542996,22487573
233817910,-22168107,-1047428579,25544476
217967443,-25879035,-1050565623,32456060
196973655,-30730403,-1054462663,35867485
172988792,-35297516,-1058409221,38992132
146876057,-38928960,-1061842619,48204923
117148254,-41960625,-1065098491,54793034
84058635,-46922209,-1067713254,60351962
49281432,-49563339,-1068928193,73680415
12220496,-53592492,-1069003247,84451567
22896091,57246400,1068023022,-91907258
54543378,59136735,1066017438,-100280434
83721143,61055197,1063237711,-108213224
110991395,63335469,1060119464,-112860135
133940972,65970581,1056660926,-118729378
152512955,66516236,1053681624,-122441083
167344976,67984287,1050871180,-126352816
177531655,70215292,1048263552,-132730388
185294660,72203125,1046590734,-134245548
191654034,73639460,1044923366,-137486816
195735629,75370363,1044101867,-137038020
196037296,76313474,1043773094,-138580520
193345949,77506952,1043868522,-140960991
188980122,76367605,1044806727,-140544942
179768321,74236705,1047025505,-137227401
163017214,69496135,1050480411,-134193782
140008118,62148680,1055253002,-126084911
110727574,55213236,1060088354,-117578864
76610123,50028363,1063691141,-114501865
40083466,45710310,1066500192,-108640305
1146879,40639960,1068057679,-102573772
37141746,-34440054,-1067647169,102398253
76235579,-26919591,-1066209136,97892950
113732520,-18889263,-1063829202,88864743
146692794,-12877983,-1060692810,78534364
174084074,-7782431,-1057346759,67627692
196627374,-4956609,-1053779847,61499631
214223405,-2693688,-1050554056,57953619
225991841,-2952013,-1048249411,54891867
231040756,-3284621,-1047073339,56285875
228622564,-2833609,-1047435288,59364842
217742375,-5985961,-1049967772,55146985
200210321,-10869843,-1053335089,56607150
176654323,-17338616,-1057106818,62763876
148178150,-25077046,-1061163796,65324346
116883788,-31113835,-1064505256,71555191
83582550,-37381624,-1066883041,79364011
47654042,-43148737,-1068304396,86685514
11479379,-47956762,-1068104565,98196310
24634140,50898965,1066792667,-108061820
59202268,55811193,1064570231,-113982138
91660516,59764029,1061181066,-121830973
119801103,63911531,1057431947,-127758317
143054106,66413253,1053593959,-134112186
160482920,69265724,1049837509,-142161799
176179270,70944445,1046698399,-145848273
188432871,74281846,1043494478,-151710386
195983048,75881665,1041210925,-156951069
200095787,77905564,1039939908,-159181951
199455284,76660417,1040225518,-158723497
198426495,75531178,1040943848,-155814687
192636527,75168041,1042075444,-155695850
181414316,72073786,1044368839,-155269522
164921581,65777020,1048594105,-147804255
142732502,59468027,1053332863,-139650895
115662554,54361455,1057764954,-133123119
85923717,50892186,1062133257,-121743786
51977540,49624567,1065713491,-109599266
12207578,47020969,1067800967,-101796877
30958893,-42037998,-1068249674,95070995
72310028,-35958245,-1067241042,86001914
113968525,-31626716,-1064563942,75072971
154230812,-29076392,-1060252003,64454485
189597404,-28850277,-1055287477,50101844
217412341,-30654192,-1050332025,38935282
237649733,-30598019,-1045966020,38247982
248359248,-30911692,-1043519410,36754539
249144734,-32596972,-1043353303,34637105
241840767,-33382782,-1044964353,37008433
226544003,-35047886,-1048170731,41335195
204663566,-37020699,-1052389544,46260613
178522352,-38357821,-1057057606,47001826
148654435,-39047958,-1061602083,47954388
115828186,-38075430,-1065618120,50135559
80620945,-37755810,-1068798130,51640862
42800246,-37971909,-1070885940,53395524
5750277,-36421159,-1071459042,59476547
28033547,36014620,1070619092,-67921442
59755401,38427504,1068591428,-77372370
87911626,41285448,1065743719,-87629272
113943123,45411998,1062544212,-94212118
136477510,49218761,1058991617,-102027712
155329104,54647973,1055307277,-110155151
169293244,58064103,1052289080,-116522703
180102009,60970003,1050149124,-118121988
187872754,63924504,1048374100,-120211212
192545339,67585791,1047089342,-121999421
196611228,70803459,1046161766,-121645063
198554831,74239818,1045663765,-120714501
200148352,76663774,1045087064,-121564129
202135260,76888167,1044734500,-121164669
203880946,77173748,1044612167,-119095327
202869716,75819228,1044694625,-120954411
202196447,73249230,1045277884,-118603532
201682881,71684302,1046006821,-113914938
200657126,71218071,1046291898,-113399622
199640561,69315688,1046704122,-112565397
200382468,69341449,1047022511,-108185012
197656059,72936212,1046519846,-115452671
189278359,75776742,1046037241,-130989854
176948148,76014020,1046740555,-142010343
160698838,72811163,1047340595,-157712992
139914046,61089091,1049418508,-168327188
116071369,33867474,1054993059,-159033145
89096426,-3668296,1061567227,-134331302
57913833,-53657386,1066073761,-100871715
22734365,-115482062,1065345764,-64085413
10069500,186977568,-1056734032,34244484
37449485,265049703,-1039682727,18097586
60823775,345160736,-1014774326,17863558
82462789,422575003,-983416785,21051639
103835348,491747375,-948740286,14700785
120893908,551765066,-913116155,8964611
128542214,605511002,-877352581,2633378
131909832,645793877,-847584275,-8512214
129315081,669787149,-829080669,-14468549
123667085,681456342,-820292854,-19100920
115442946,678498115,-823870942,-21710755
111426229,663396692,-836409212,-28804986
113908180,635671171,-856608973,-45711767
113368598,598757301,-881699222,-64537796
108799575,549061091,-912518089,-83226877
98247112,488344741,-946189407,-97539368
86871122,421213995,-978387264,-103499012
81228657,345835448,-1006526631,-116727725
74037085,269371341,-1029460691,-122840464
67545006,192343247,-1046687304,-125733617
66888888,116699657,-1056075868,-139757614
63660136,45378820,-1060078865,-151797418
59222561,-17970929,-1062999953,-138283535
53697608,-74862860,-1063354674,-117091641
45578286,-127688508,-1058466820,-119112255
35818451,-172201245,-1052694272,-117558689
28867917,-206455695,-1049031011,-94858472
24112077,-228926761,-1045718470,-80034571
19695188,-233551322,-1045213775,-74266655
18584303,-224427806,-1047124129,-75758483
23252341,-198104916,-1051972008,-80561602
35022828,-152506976,-1058946057,-84081786
51952900,-91869184,-1064662539,-90973249
67016314,-18843176,-1066850871,-99521088
76626929,62171765,-1064085132,-104437946
85791014,145026283,-1054730585,-109873457
93909659,227496681,-1038645972,-116457231
97120842,308493030,-1017089511,-117686051
103182923,384045053,-990829316,-114199182
109890616,451050299,-961983845,-109480945
113817778,508847457,-933312751,-99842348
118092680,554741952,-907246758,-90223576
125947835,585255528,-887383634,-84171865
130951259,603484712,-874999683,-77168589
133008009,611673678,-869342111,-73006718
129640729,614738907,-868327651,-64944628
127667698,611992513,-870750204,-62298552
135536576,601848028,-875483396,-76544869
142336799,578698922,-888120066,-94931806
137341644,539413580,-912116512,-105523456
121158366,488081296,-942204238,-110769916
103983006,418492431,-976120033,-119007575
81935175,341432916,-1007008413,-124762697
53463570,263013029,-1031895111,-126806039
32945079,189164773,-1048356088,-130392977
17982378,125113193,-1057789619,-134260760
7132794,68619805,-1061700389,-144755778
777491,-18210800,1060923228,164411596
10166613,27881792,1058024580,180623197
22196541,71434115,1055064344,184838354
36029156,109203676,1051387209,185156421
50023107,143786649,1045692599,190450997
62616372,172504036,1040587436,190842451
71898920,193099405,1037085606,186863902
75320514,205686741,1035824464,178910480
73655010,204813854,1038239456,166152224
68209383,190543024,1042999261,155289669
57704245,162311483,1048952570,151476735
39754582,118757937,1056147859,147612031
17735360,63061108,1062153873,143036394
7433928,2347537,-1064000167,-144098497
32189096,76545406,-1060994360,-142538132
54459171,155370606,-1052246420,-136356606
75381413,235845151,-1036563821,-130964294
96985991,315467117,-1012981579,-133656379
118622144,387382930,-984913244,-136859956
130759875,451669355,-957212167,-124751641
133995267,509111607,-929377614,-109677934
133800639,553000418,-905306012,-98132281
134672065,582434754,-887403671,-89826459
131729598,600415528,-876920345,-77978892
128901890,606815353,-873843971,-66913245
131265454,602568350,-876567308,-65053804
132018027,590053231,-884724599,-67766568
127358217,570894203,-897502000,-72599170
121070951,541785745,-915175581,-84765500
113712128,499205245,-938159338,-103160721
99638296,446795493,-964032003,-118363005
77276603,388469357,-990820398,-119650586
58826081,323174335,-1015764970,-115068966
43464042,255374060,-1035984840,-112035191
31707032,190330036,-1050256632,-112479580
24777736,127247428,-1059760371,-114120995
18759086,64568044,-1065316255,-116197452
10642739,8073083,-1066712612,-121931405
4955847,-46084498,-1065273244,-126356953
3023013,89702221,1063855444,114356784
6984525,123297689,1062349056,95314662
9863851,148984045,1059194671,93459133
15224323,168518124,1055716562,98761878
20724542,179477283,1054213221,94416038
23596327,177212014,1055365710,84639470
24408957,161153125,1058223581,80735545
22817380,134206993,1061894231,82279955
19579095,96438510,1066131993,81242497
12884241,49173873,1069119596,85561221
6048245,-5458234,1070104718,87926244
3830633,64985805,-1067746405,-92743149
15045148,129148251,-1061354786,-97682634
30335024,195478913,-1050622796,-99905089
48173387,262452435,-1035314647,-99212559
65567634,328832375,-1015624504,-94860530
78268449,393824617,-992028996,-87040509
88337015,456100118,-964927933,-77490928
97350724,512509069,-935636744,-73230127
108402404,559096626,-907092234,-75927521
120847931,590693466,-885166422,-76674081
124990171,608109205,-873091582,-72202827
125306305,611493649,-870730814,-71576543
124611425,601102083,-877809915,-74293597
122969533,579642892,-891776750,-80921844
122367635,546731575,-911225326,-93277316
115842657,505401777,-934707086,-101949235
103737256,455139581,-961851230,-99248472
89533377,398427250,-987827445,-101773991
76233262,335720737,-1011229758,-108701117
62694732,271443350,-1030537571,-115332992
48752556,207849205,-1045486430,-119588955
33759278,148259466,-1055574621,-124752424
25263384,89641786,-1061692370,-130602176
16304309,38365267,-1063981256,-138302815
6403440,-8835625,-1063232210,-149464719
2709459,48766230,1062407531,147737124
10482989,79787936,1062460354,132753510
14284246,104032515,1062039417,118181969
16267971,123166766,1059647540,120970641
18454577,137408792,1057396883,124946349
20084989,146057796,1057021356,117860380
20792616,145913937,1057866418,110076961
19274677,136871020,1059604431,105141633
13745779,119230876,1062274165,100449757
5079027,93531549,1065236573,97049484
5336155,-59659001,-1068041255,-92853182
17053339,-18493296,-1070188231,-83581328
29306089,27724776,-1070670839,-70412702
40388138,81385265,-1068241239,-59391810
50526258,141073558,-1061857294,-54091981
61920404,204326479,-1050916510,-53968035
75106905,269903635,-1034939760,-57724951
88054236,336368265,-1013879735,-63814031
100906213,401284747,-988113148,-73091729
114771072,460426592,-959251354,-87139143
129154664,508023606,-932421822,-93498231
135422220,545353977,-910479093,-90549370
131952912,571920548,-895594008,-79549891
128807575,585333142,-887954441,-72469654
129153654,585802591,-887287069,-76141961
133679235,574503496,-892666120,-90241061
134250152,553491106,-904222001,-104539786
126191920,525187136,-920932543,-114275231
115507506,487676579,-941854775,-121080990
104403605,443191144,-963905498,-128410244
91605009,393921057,-985943293,-131422871
76518095,341310471,-1006814825,-129990473
61383453,286895159,-1024813052,-128852451
46141851,232676121,-1039370152,-127921607
31866093,179138167,-1050517460,-127391517
19052569,125608418,-1057708235,-134291916
6591498,72910758,-1061782856,-142053678
6408385,-23848049,1063796899,143693657
19464240,21994032,1063386306,145837134
31466835,66490428,1061569969,143455806
43020736,105800828,1058888047,136502787
52925451,140443557,1055324144,129178008
59960796,166897194,1052343642,118509038
62902560,181174962,1050757795,109765493
60948308,185356093,1050639185,104915349
56284063,176609159,1053084228,97859006
48496556,157586068,1056732120,95149591
37992429,128602633,1060767195,98551492
23618181,89710757,1064629687,104303708
9628117,40935826,1067614719,106545172
5416541,13267564,-1067662798,-113191381
20060325,73740727,-1063951805,-122833008
34299491,138623134,-1055750023,-133867713
47425495,205143118,-1043345358,-141488842
58837616,271902029,-1026416350,-148318573
70093291,335903063,-1005129874,-157769996
79644317,395636014,-981436155,-163809131
84257495,449725365,-957597457,-163022643
86937268,497048765,-933697819,-162832198
86951303,536778670,-911764668,-160980828
81681077,569635404,-893330575,-154031402
77707652,589798474,-881503603,-148229857
77692500,600109388,-874422431,-148793218
79915677,599607755,-873856163,-152908047
79700185,587552223,-881641965,-155110102
80368158,564476739,-895280603,-162176033
78509369,532411820,-913468216,-169914922
71511788,492454483,-935432811,-173958637
61483934,446202158,-958798026,-175360234
48903115,392095881,-983486732,-171885559
37244705,332238729,-1005830874,-171627552
25397398,269166028,-1023551465,-179355863
8875229,207223975,-1038802307,-175472868
6300835,-145065778,1049279235,175643995
19215051,-86387583,1053310259,188751077
31203429,-32298725,1055522608,191772440
40852970,15073063,1056702734,185484958
48724519,54901073,1055619093,182213120
55370594,88488148,1052331427,186075101
62942730,116570230,1049248202,185605255
70982930,138134740,1047230313,179193735
79604823,152074968,1045567148,173916771
86134313,160068911,1044071794,172610594
88497741,160302414,1043521033,174518325
85228734,152335232,1045724406,170035321
76234008,136998593,1050429314,157922441
62905035,111554562,1056380504,143458263
46967505,75059686,1061852551,132479297
29421499,28323200,1064967000,130763012
12826777,-26268705,1064961139,133883185
2930858,86296557,-1061656533,-135466697
16559870,151486862,-1054226795,-135295499
30022939,218863638,-1041529432,-139051355
45622515,286411010,-1023019255,-149132154
62956760,351569563,-1000034476,-159021512
80311896,412449298,-974114731,-165703107
93222026,469246657,-946674127,-166873682
104479892,519332218,-918882633,-167195119
115899105,558493488,-894979198,-163052500
122525154,587207156,-876657211,-156744959
125342144,604507623,-865640602,-149825682
123823038,611963990,-862119025,-140855326
126853896,605842949,-865708835,-142590776
131391332,590770345,-873836599,-151847951
131791325,567549828,-887354205,-161376107
129087761,532479979,-907289121,-171898648
119377464,489343302,-930924661,-180535110
105730659,437872499,-956290754,-188462703
87466199,381379385,-981187001,-192595441
64867223,321942773,-1004509521,-189808294
41799011,262707308,-1023413759,-186503335
21094925,205508155,-1036910755,-187240475
3030639,149765836,-1045756236,-192032315
13831775,-98324847,1050675042,197849349
31031814,-52424544,1052687529,202630616
47203711,-10977884,1052553252,206650559
60991340,28315526,1050172186,213396751
72949858,65637146,1047032366,216828995
82281457,98615528,1045841949,206496598
88151942,124627742,1047692160,178773052
88598363,142087202,1049532443,152855207
86327531,150298583,1050787043,136842934
82721651,150122656,1051643410,132619558
78400111,142771273,1053510784,128476294
75080525,126944814,1055462304,131029582
72074807,100287005,1056593208,145876790
66654292,62707130,1057081767,164695676
57451457,14867282,1058212272,172007474
43364791,-42372125,1057534657,175687376
25925035,-107623824,1053330660,176524877
8979627,-178257469,1044731189,172051997
6483344,251866771,-1030696845,-164640871
21926468,325527061,-1009894153,-163054188
38533716,395508512,-983509475,-166489564
52678285,460375412,-954267216,-166057408
63617694,518178784,-924697532,-159058220
77195791,563565850,-897938290,-151863800
88792488,595491391,-877216553,-144632367
94752281,614167626,-864781345,-137458331
100021699,616683221,-862619153,-136041050
103997074,605123859,-869081529,-143626331
101472914,582941450,-882991750,-152084148
90817751,552155446,-902686639,-157970413
75040645,514586648,-925329871,-162035830
58744047,472100407,-947930772,-167389053
38900544,425848533,-970774122,-166309531
15668552,380513230,-992034541,-154120581
9572320,-339075347,1011374452,122390782
32457338,-304311880,1026400195,75927202
50586904,-280368558,1035038661,21234710
59576194,-272915449,1036412993,-27155964
56085634,-280402327,1033398516,-56902594
43778783,-298797534,1027494165,-77334978
25841633,-327544987,1017605641,-97194432
4765226,-364870346,1002690661,-119916087
22974731,407104401,-983585870,138630829
61665447,451460394,-960650422,149843781
111347250,493489578,-935134395,150048588
171028110,528693650,-907529480,143332311
230323876,555112843,-878561826,140893669
277931268,576739704,-849754870,144785551
313195916,594581875,-823688320,151120335
333499898,608600835,-803412879,160723187
341792734,621160577,-788281270,169915794
346665506,627103616,-780859237,172465731
346544431,630488707,-777764309,174341966
344368015,633400632,-776190298,175112587
341671229,637364479,-773906819,176116439
345790396,636793283,-773882899,170147193
359335659,629992064,-776168571,156434457
366844579,622675512,-779853617,149829784
354438484,616919590,-789309096,153935817
331020158,605539568,-808266736,152884445
297306561,588366958,-834881922,146036816
252925980,565355344,-866492764,136064615
195561506,537812252,-898749311,132983606
128377400,506935373,-927079171,141354524
59077169,469649961,-951484335,153420547
12188923,-426370768,970800308,-168901348
80886679,-381565833,983633228,-182351307
135291717,-337073140,992529663,-189431315
175248793,-295436704,998589821,-194280441
204043164,-253509737,1004113233,-196919579
217873892,-213196470,1010528445,-197057254
229726255,-173040905,1009217654,-227340392
249185518,-128229169,993471347,-295634987
262360114,-85862160,973586488,-358950688
265168438,-51413902,957845597,-403107453
266331806,-18742630,946768179,-430427232
264480950,14666286,939342633,-447651236
265287418,51180945,925338160,-472941733
265434835,87376521,910133785,-496475260
257768356,120988403,900595858,-510651349
248417641,153087437,884846310,-533686635
239974611,175330632,864185187,-563716948
229457826,179220258,850691904,-586918828
218451557,163864302,844710030,-603997814
203904558,127299235,844991699,-617355950
182266113,71597555,852744906,-622414605
152877794,1644359,866393039,-615556783
114603555,-80393040,882302548,-595706832
65395190,-165342522,902586203,-553755325
5927109,-246896249,921052440,-493549411
55791863,320472650,-929859499,427161854
135535954,382627264,-931440926,347225702
224316278,432066911,-919328873,265999266
302025326,466431414,-895743458,204419631
368986543,491362755,-865479234,162105583
433867489,500072921,-836800146,119882364
493190143,496334411,-810828595,76773154
535997922,497125921,-785186969,44415194
555515838,501511520,-768987292,38279231
561819550,501628652,-764094199,42412262
565512440,494646821,-766135036,38455357
556059365,489067010,-776254090,44261161
523703686,486653832,-797975316,71124818
472044816,475121596,-831247629,115679548
407915114,454047352,-866810965,170312988
336894350,418849021,-900048328,232168308
266183459,365476820,-927931806,295697696
195659697,300523668,-945635293,360690961
125037466,227740960,-952182138,422812452
69283261,152046428,-950996403,469690349
31273618,86997268,-947342419,496907722
567558,-28224057,942077790,-514406478
31974272,27621866,930429854,-534262519
58726012,77602829,923291048,-539429512
81451395,123063928,926287855,-522621493
107398675,168458911,922129424,-512528936
131443821,211642427,907910783,-516284321
150270312,247651251,896361635,-515310566
163828535,272851008,891203517,-507336421
169543484,283243247,890286654,-501337647
168849507,282031298,891397115,-500280783
165201060,275100777,894017682,-500681538
158111758,263010701,899805168,-499096993
146494123,247286165,907695043,-496387183
126106782,223212506,914635179,-500636847
97688524,185728551,925543936,-502246690
61519210,138039672,942050376,-492567793
16004106,82582961,958794880,-475980882
38035202,-19969718,-971703115,454828639
94560524,44086390,-979555314,427208660
153894090,106036530,-985964514,381926880
212682577,163630067,-986239744,329004433
270747218,221706511,-974985376,282607831
324973344,274454621,-956952306,237129166
373252753,320984439,-935092521,190196695
414276200,364178898,-908792305,150887312
449236895,399793082,-881512142,119192478
479901029,427798434,-855212781,90642155
503907203,451162338,-831061425,69198901
520164548,470309658,-811140644,56642338
531892145,482029922,-797042325,48815214
542901520,488574180,-786133857,38317671
551274646,490384790,-779534450,29419186
556128085,489423458,-776884340,23556763
559088446,485612284,-777278577,18814313
556859495,482866628,-780511479,21599463
551903113,477958593,-786844064,27480445
546001914,466765221,-797597534,27778569
534967020,452110714,-813293043,29520346
513355504,437365933,-834422499,42795098
475368245,417859784,-864100045,75303779
428847036,390204650,-896570361,113635653
378598209,352091136,-929058354,149880592
322649143,308043246,-958560313,187322696
262524176,258332038,-981953903,230290135
202371198,195588211,-1000478783,269731090
150982638,143872887,-1010093163,298560028
105343699,94310542,-1016105731,316952468
65448968,50542311,-1017681319,332277198
30592203,12496958,-1016411062,344583809
503387,-21131541,-1012079696,358007542
24756520,52623175,1006437925,-369624283
43927248,77527995,1002799277,-373329509
57254866,96360605,997519030,-381200452
67606863,112287861,988972127,-397084860
76777989,126384515,982714782,-406602035
83024859,136580214,978662237,-411818453
87586330,142970035,976802574,-413117951
91424589,147154512,975046633,-414960919
93804007,149607019,975507674,-412461914
92629377,148519923,975887503,-412221664
84559378,139385716,975241458,-418625053
66421452,115840590,977990121,-422641665
39161848,80757607,985205828,-417415263
2068281,34942271,994448881,-403444778
44549069,19639508,-1003832247,377984122
96996805,77401572,-1010768152,340396607
149859711,136870009,-1009172503,305452129
199915733,194668185,-1001093842,269945594
258213368,250795061,-985585645,227967575
315985992,302648593,-961437204,192646485
370980549,348290045,-931118775,164336743
422791410,386679322,-897342597,139370373
468988839,421093164,-861145077,118660323
511685865,444618205,-827112166,96389441
547585612,461046854,-796912170,73742594
576746565,473615771,-770259713,51700781
592671923,486512900,-750511342,41221798
599444152,496949812,-738461265,36105135
606205981,498933877,-731968013,26879362
613754609,494511729,-729014878,14817562
617900143,486380459,-731100906,6501032
612248299,477181077,-741837921,6780250
593859926,466655623,-762998169,17832482
564629627,451553396,-792946582,38080696
524074063,425356478,-832141520,69854502
475903012,390316645,-873119602,108409992
420638423,350709362,-910478704,154971507
361583649,306321390,-941349045,205435154
303921833,247345066,-969016185,245724914
243821376,194515214,-985145430,291761800
191024337,141691901,-997283089,319031432
145145210,89384209,-1006836596,331880859
95163308,42268412,-1005580950,361781128
55147225,-2916319,-1001466734,383322457
20823630,-43558215,-996503206,396953302
8258704,78637800,990074982,-407947210
32471500,107093677,986397357,-409167813
51670747,128466653,983629005,-407703249
66298656,143659656,981415425,-405846843
76851447,155039935,979808387,-403674942
84582404,163049988,978305671,-402616486
86629496,165098107,977250185,-403907821
87564880,163710245,979681091,-398343838
89426069,163897967,980962071,-394683868
85692595,158712797,980444021,-398896044
74656369,144531206,981123956,-404789378
54753419,120178668,985589996,-405083914
25913705,85401401,992765177,-399216595
14041749,-39204756,-1000628210,387208608
65711687,18130987,-1008169806,363136867
122948710,80099418,-1012548968,325781814
176706982,143836996,-1008219326,290690313
227986124,208120518,-995509161,258051968
283104574,271868505,-974324736,222603081
333353255,331192346,-946174083,191997900
379876695,380912565,-914973187,162310493
423369384,422216943,-881922057,132762913
463780704,450743191,-850759458,104245759
496485755,471814008,-822788735,82665799
521127774,490278552,-797915379,65604957
535134060,505766718,-779307088,58520397
540965369,520627710,-765421222,57923309
546170792,529074054,-756025239,55904131
556429821,527234805,-750435011,46629861
566606646,520305156,-748274770,35296288
572138905,510332208,-751178721,29498189
569592503,500102764,-759998927,28013229
553848801,489864099,-777855344,33839697
523781999,475109361,-806515781,48751116
480083490,445946989,-847252115,75738904
431490834,401600798,-891844963,100327584
375653734,351190431,-933387604,131372100
311405270,303098002,-964535073,183712406
247760668,247514845,-985754695,241992226
198348587,188750469,-1000474129,277494148
158397259,131219719,-1012662951,291764586
118984265,79537828,-1018311265,308998609
83655790,34710084,-1018860125,326561575
53092502,-5053194,-1017621223,338414242
21666363,-42407163,-1011017843,358464264
3404073,76647314,1003887275,-373156063
24527017,104902380,996465850,-385189859
39001381,124201313,991117712,-391995004
48757862,134719231,990802413,-388208031
56993303,142374772,990380774,-385420022
63450339,149096495,987363619,-389588090
64658691,151886953,984853505,-394632283
64112604,150440893,985160084,-394509975
65605196,149947904,986025594,-392283839
65415452,147151847,986728582,-391606119
59347235,138209363,987838142,-393031024
45303610,119230079,990514118,-394379263
22454402,89264201,995072353,-392785210
11436391,-46053829,-1000564197,386705375
57120799,8565064,-1006600358,369243899
111638859,68682333,-1010208933,339438414
169107989,129595874,-1005619397,310255565
224243647,189455243,-993574442,282049840
279861417,248105677,-974426979,252057422
333091208,303776527,-948391040,224155858
382047145,351221293,-919405765,195699072
427487610,390912616,-888738650,165850311
466410175,425621354,-856804126,141829721
497250475,456482970,-825838538,123602075
523582098,481241325,-797422448,106333611
545672812,500159429,-772622501,89763903
563571755,513058517,-752703767,74272348
577253057,523219777,-736272595,62001080
583439235,532472520,-724840621,59993455
587130786,539005378,-717072044,58989447
593213878,536256677,-714435193,55043001
599383977,526655602,-716902697,48417750
596176921,518947129,-725176011,48040715
582321890,511043760,-741206583,57181861
560791720,497413059,-765420472,71674850
535597697,472420250,-796906226,88382039
502866273,441482260,-832343971,111103304
461691460,410715186,-866443866,142652353
416809011,379059850,-896309765,179259961
375279922,337848303,-923100533,214080359
333880509,293299754,-946813469,242826440
293502759,248778144,-967789040,261288015
251672513,204834885,-985853867,275167722
207977761,165851998,-996947295,297079031
171492701,127677004,-1006274517,307606782
136656142,89709160,-1015675182,307575655
99599288,52304605,-1018652493,320332351
62006657,16547870,-1015588295,342612411
29921661,-17075833,-1013689013,352376506
1474924,-48089785,-1011377150,357383497
24346695,77830894,1009336663,-357086257
45525526,102427120,1003950745,-363923731
58443003,118398344,998290530,-372697952
66522646,128072835,995758123,-374912461
70884796,134539251,992692899,-379943218
71701123,138629183,990079486,-385103903
70772257,138192392,989754661,-386265930
71025023,136228208,990635496,-384655873
68759609,131070870,991547872,-384508589
57827948,115860697,993301024,-386661088
37621425,90222735,998127982,-383544680
10563599,57037403,1003845296,-376631481
24810259,-16192733,-1010049872,363101900
69282781,30821125,-1014672496,342944820
122185546,82654941,-1015582223,315837150
181331465,137300840,-1010837384,281772623
236224212,190112968,-999666006,248283093
296466109,243158400,-979831039,214089774
356110856,291051590,-953667857,178642532
411226260,331811783,-923217563,146235177
459912470,367019027,-890423175,117663040
503212760,393832272,-858348089,88504941
539018872,414697368,-828614683,61561508
564167578,435288024,-802025524,43770369
581702940,455986502,-778161744,32920763
592749236,472982246,-759666107,27656190
602438116,483061235,-745775649,21439190
610674924,489115812,-735176950,16622664
616634648,493650968,-727184212,13834928
621553541,493426294,-723192353,10486637
625157366,489954670,-722490284,6587672
621528301,489484071,-725896625,9873317
611577207,488185645,-735025325,17471818
599006000,480963566,-749849937,22627094
582337666,467967287,-770739348,27781121
556889790,451298074,-798605888,36739667
522807534,432293898,-830719163,51191725
478512071,406337920,-868122178,72117641
427707921,373662776,-906552293,92336507
368598536,340580747,-941527038,120779046
303963920,306009112,-969036834,166892577
240855681,258740497,-990612002,215988987
179458190,212266446,-1001636497,269041905
132493420,161175261,-1009431741,300727605
93332122,114669108,-1013820139,321294785
59722994,75429664,-1011168835,348141669
32019344,37984478,-1006700755,370144577
10180599,5862856,-999318720,392613785
6443308,21619797,990961530,-412804822
19146632,44351829,982310163,-430876513
28499769,62247276,973117437,-448639047
34604088,75406693,969047569,-454955707
39391249,84370865,968495053,-454168109
45207999,91707527,966527943,-456389244
49047362,97012868,963517322,-461236073
48563983,99385306,961550356,-464872580
48712125,100646489,958807032,-470221210
48574869,100996403,956298459,-475242009
46230331,99091772,955371863,-477733901
41194119,94211694,952346204,-485165343
26813432,80196563,950046625,-493135342
4507595,55171360,951049225,-495340973
25561727,-23436578,-956393564,486857456
65832008,14335682,-963812964,468451394
114432132,57938766,-965634675,451685164
172605396,109054259,-961707438,431688374
240758678,163119382,-954039732,397689577
314126833,222143215,-935683377,359710964
384303448,279539379,-907504658,321753593
456699171,335526395,-868380713,278716600
523013765,387770957,-821170808,233857845
582200838,432409531,-768880709,189230313
633977977,469810391,-713717400,144475759
678394986,499664060,-658135868,99471272
714255929,521218450,-606652621,55352471
740371924,539340426,-560068234,14318100
753061463,557134037,-524364328,-21532305
753593717,574907051,-501623424,-53608104
751566776,585485599,-488406227,-82065943
745096267,597005553,-479146528,-108423183
735554106,609537308,-472847342,-129452446
726369174,620887901,-467763897,-144887320
718566634,629573612,-464102979,-157572171
714870602,630994917,-464371959,-167587666
714316984,627752536,-465793804,-177864099
709990838,628820712,-469717635,-181064539
702361224,634365646,-475872422,-175316484
706840026,627197527,-481028676,-168918180
724450612,606090834,-483928725,-162925082
738106175,585661321,-493920095,-145472911
741901654,567860298,-516219795,-116422723
735177813,550728465,-550459764,-78254013
709686666,535817126,-601178315,-27403991
672869897,515127533,-658934981,24810400
629012333,482860740,-719869724,76718704
578417989,440601335,-780405048,123258046
519615353,393654856,-837259069,164172455
452737793,348867559,-885691848,204424480
380270787,300859930,-926497422,243721568
316356206,238788042,-963395424,260169578
251597701,181014929,-990264480,276097733
189920891,130872816,-1004575818,300917360
141428677,82459393,-1014209385,312248632
100945401,39086008,-1015336096,332109061
70610280,2428887,-1007634292,364146850
46981540,-28895568,-993929001,402472891
26841465,-55730280,-981119300,431856567
9402751,-76678585,-977908725,436632585
7780036,93269389,974810657,-440347569
19329563,103461590,970014608,-448235686
25072038,111061294,965325098,-456186084
28095677,117151757,957942202,-469845009
27797997,120329854,950426348,-484106637
20338798,114569521,943982966,-498274846
500174,92607687,938381494,-513600276
34573679,-56611909,-935249922,523286570
86223075,-10334039,-932820023,524620909
153270364,41898818,-930511771,511685332
227342067,98891540,-922107785,491095067
304578869,158603306,-905635862,463488399
384303187,213198615,-884596986,421030958
460134860,264802153,-855164043,373859173
532069802,315535822,-815495519,324387766
595947739,357721607,-772007755,271674033
651065280,394308721,-725170256,218362665
696875120,427769342,-676456335,163422034
735375250,455651798,-626834316,107709959
765359239,478603634,-578741553,56066939
784432074,501669040,-534587710,11262606
795932705,523549973,-494359300,-29881032
798389302,548845688,-457771290,-68628618
798439075,570703383,-421495093,-109800205
802938691,581189377,-383518176,-152786388
802279976,594680139,-340691734,-198879410
795616889,610209797,-305381349,-232977001
783465647,628583681,-273163052,-263368962
769714114,646362019,-243666171,-288625156
758210314,658724501,-218275256,-310601594
753424248,662838610,-199913563,-325504133
756594473,657994032,-189018621,-334337188
758718220,654965216,-190121170,-334875842
763374417,649336146,-200779236,-328985214
774524211,635989831,-221728255,-315256399
784236738,621875984,-256308784,-292344553
786271277,613804263,-301078863,-259399261
785273978,606034200,-348571118,-217901665
778219021,598082014,-401367725,-168810236
760314891,589964835,-463573644,-108996864
736742004,573658213,-528151258,-45852578
705621882,546919381,-596435807,12758421
666788763,509822396,-666183479,67781531
619271065,468207028,-731864994,120730531
561461410,426370586,-790711997,175087395
499059492,380027435,-841216956,227583626
431926678,326919185,-884520775,277680978
362159666,273171546,-917503089,324535719
304502048,217992107,-943367341,350338574
248619379,163219651,-961094290,375189314
192008711,117261860,-964671591,414382111
148418381,74141708,-963512698,443891614
110601353,37670601,-957893966,470859471
77648332,6077610,-951676556,491087515
49366592,-23744988,-951464307,494607167
23469505,-50945683,-946769661,503390937
3681405,-73654856,-938406971,516599721
10913908,91159964,930147546,-528505246
22265729,104672591,925311986,-534104036
