1
44
44
373
984
1222
1844
1844
2732
2732
2977
3588
3588
4484
4484
4729
5379
5379
6282
6282
6514
7164
7164
7977
7977
8224
8781
8781
9605
9605
10483
10483
10725
11393
11393
11633
12287
12287
12600
13649
13999
14015
14015
14931
14931
15187
15884
15884
16129
16900
16900
17150
17892
17892
18796
18796
19037
19702
19702
20598
20598
20844
21471
21471
22187
22579
22579
23139
23139
23930
23930
24687
24925
25438
25438
26181
26181
26949
26957
26957
27999
28049
28049
28737
28737
29678
29919
29919
30603
30603
31460
31460
31682
32313
32313
33165
33165
33927
34041
34041
34946
34946
35183
35857
35857
36110
36773
36773
37662
37662
37902
38538
38538
39434
39434
39678
40353
40353
41299
41302
41302
42244
42244
42494
43354
43354
43967
43967
44206
44844
44844
45739
45739
45986
46654
46654
47510
47510
47762
48324
48324
49152
49152
50003
50003
50246
50902
50902
51147
51842
51842
52792
52792
53046
53748
53748
53984
54668
54668
55624
55624
55868
56572
56572
56808
57531
57531
57773
58484
58484
59379
59379
59621
60264
60264
61159
61159
61949
62071
62071
62325
63225
63225
63811
63811
64645
64645
65410
65410
66095
66095
66150
66500
67549
67661
67661
68424
68424
68978
68978
69941
70193
70193
70683
70700
71435
71435
72192
72192
72960
73369
73369
74073
74073
74429
75169
75169
75918
75918
76474
76670
76670
77470
77470
78347
78347
78573
79321
79321
79574
80499
80544
80544
81544
81899
82240
82240
82942
82942
82950
83907
84331
84615
84934
84934
85749
85759
85759
86599
86599
87447
87447
87701
88316
88316
89242
89242
89250
90231
90231
90476
91224
91224
91475
92173
92173
92417
93150
93150
94149
94149
94150
95123
95123
95672
96075
96075
96750
97211
97413
97999
98025
98025
98748
98748
99603
99603
100416
100416
100656
101267
101267
102171
102171
102413
103112
103112
103356
104017
104017
104915
104915
105161
105845
105845
106096
106792
106792
107701
107701
107942
108409
109056
109056
109200
109818
110472
110727
110727
111320
111320
112185
112185
113040
113040
113744
113855
113855
114665
114665
115433
115642
115642
116181
116680
116680
117266
117266
117911
118087
118653
118653
119690
119963
119963
120222
120766
120766
121574
121574
122413
122413
122653
123281
123281
124165
124165
124417
125069
125069
125986
125986
126000
126899
126899
127147
127793
127793
128637
128637
129453
129714
129714
129850
130534
131138
131382
131382
132037
132037
132962
132962
133194
133870
133870
134468
134814
134814
135767
135767
136011
136719
136719
136965
137626
137626
138543
138543
138782
139443
139443
140311
140311
140536
141169
141169
142041
142041
142283
142918
142918
143752
143752
143992
144587
144587
145449
145449
145694
146370
146370
147309
147309
147562
148217
148217
149087
149087
149330
149978
149978
150849
150864
150864
151754
151754
152599
152606
152606
153489
153489
154336
154336
155049
155213
155213
155436
156094
156100
156737
157459
157849
157874
157874
158326
159006
159597
159597
159600
160649
160668
160668
161136
161954
162399
162684
162684
162750
163775
163775
163800
164665
164665
165549
165660
165660
166100
166655
166655
166950
167866
167866
168599
168599
168835
169576
169576
170373
170373
170853
170853
171849
171849
172549
172606
172606
173133
173384
173974
173974
174853
175108
175108
175754
175754
176621
176863
177449
177460
177460
178275
178275
179088
179320
179320
179892
180153
180940
181253
181461
181461
182257
182257
183049
183055
183055
183854
183854
184517
184517
185416
185416
185666
186236
186236
187067
187067
187890
187890
188142
188743
188743
189650
189650
189899
190596
190596
190847
191536
191536
192454
192454
192701
193387
193387
193640
194329
194329
195286
195286
195300
196217
196217
196459
197096
197096
197976
197976
198221
199119
199119
199711
199711
199955
200493
201234
201234
201474
202040
202040
202927
202927
203176
203897
203897
204141
204865
204865
205799
205811
205811
206747
206747
206988
207649
207649
208514
208514
208757
209348
209348
210134
210134
210925
210925
211737
211737
211985
212604
212604
212842
213518
213518
214451
214451
214693
215377
215377
216249
216249
216496
217130
217130
218011
218011
218250
218886
218886
219785
219785
220038
220691
220691
221549
221558
221558
222445
222445
223294
223294
223300
224168
224168
224410
225079
225079
225995
225995
226241
226870
226870
227770
227770
228019
228686
228686
229569
229569
229625
230415
230415
231203
231203
231816
232202
232664
232664
233386
233386
234114
234114
234350
234865
234865
235668
235668
236510
236510
236756
237368
237368
238213
238213
239042
239042
239050
239838
239838
240636
240636
241448
241448
241690
242260
242260
243129
243129
243368
244071
244071
244999
245004
245004
245970
245970
246203
246945
246945
247186
247924
247924
248165
248901
248901
249793
249793
250545
250671
250671
251537
251537
251766
252404
252404
253273
253273
253506
254133
254133
255000
255000
255849
255859
255859
256727
256727
257581
257793
257793
258649
258651
258651
259269
259484
260111
260111
260944
260944
261715
261715
262499
262508
262508
263351
263351
264228
264228
264465
265088
265088
265945
265945
266187
266810
266810
267684
267684
267922
268564
268564
269444
269444
269670
270320
270320
271163
271163
271403
272019
272019
272900
272900
273140
273823
273823
274741
274741
274750
275642
275642
275884
276803
276803
277444
277444
277673
278323
278323
279154
279154
279999
280001
280001
280868
280868
281128
281705
281953
282503
282503
283291
283291
283535
284092
284899
284904
284904
285701
285701
286527
286527
286778
287361
287361
288156
288156
288945
288945
289747
289747
289990
290560
290560
291448
291448
291693
292388
292388
292641
293330
293330
294278
294278
294522
295214
295214
296097
296097
296100
296979
296979
297216
297864
297864
298767
298767
299013
299692
299692
300626
300626
300869
301570
301570
301818
302517
302517
302767
303482
303482
304452
304452
304684
305397
305397
305606
306317
306317
307221
307221
307471
308113
308113
308997
308997
309251
309874
309874
310799
310804
310804
311752
311752
312002
312696
312696
312945
313631
313631
314527
314527
314761
315400
315400
316294
316294
316540
317181
317181
318049
318049
318293
318940
318940
319890
319890
319900
320854
320854
321098
321822
321822
322061
322758
322758
323643
323643
323888
324519
324519
325416
325416
325669
326320
326320
327212
327212
327459
328086
328086
328952
328952
329203
329793
329793
330597
330597
331394
331394
331637
332233
332233
333143
333143
333393
334033
334033
334928
334928
335177
335824
335824
336699
336704
336704
337537
337537
338355
338355
338603
339178
339178
340023
340023
340891
340891
340900
341749
341749
342603
342603
342852
343452
343452
344307
344307
344561
345161
345161
346017
346017
346265
346888
346888
347750
347750
348003
348637
348637
349588
349588
349836
350546
350546
350795
351485
351485
352395
352395
352622
353295
353295
354178
354178
354429
355018
355018
355831
355831
356088
356671
356671
357556
357556
357797
358491
358491
359378
359378
359621
360276
360276
361191
361191
361200
362138
362138
362388
363051
363051
363914
363914
364155
364768
364768
365640
365640
365881
366529
366529
367436
367436
367684
368304
368304
369185
369185
369434
370104
370104
370351
371026
371026
371940
371940
372179
372873
372873
373125
373824
373824
374776
374776
375022
375713
375713
376578
376578
376831
377445
377445
378292
378292
378541
379166
379166
380099
380107
380107
381091
381091
381341
382053
382053
382307
382985
382985
383847
383847
384090
384699
384699
385546
385546
386399
386400
386400
387258
387258
388122
388122
388366
388989
388989
389842
389842
390094
390691
390691
391519
391519
391763
392383
392383
393283
393283
393528
394217
394217
395114
395114
395362
395996
395996
396237
396922
396922
397870
397870
398120
398774
398774
399699
399704
399704
400642
400642
400896
401603
401603
401851
402559
402559
403505
403505
403751
404424
404424
404674
405320
405320
406144
406144
406884
407190
407504
407504
408429
408694
408694
408800
409153
409898
410549
410639
410639
411385
411385
411628
412649
412854
412854
413579
413784
413784
414166
414909
415286
415753
415753
416473
416473
417191
417191
417200
417912
417912
418643
418643
419397
419397
420148
420402
420924
420924
421721
421721
421989
422570
422985
422985
423673
423673
424385
424385
425249
425300
425300
426237
426237
426851
427150
427150
428007
428007
428277
429049
429049
429582
429582
430337
430337
431116
431116
431361
431935
431935
432783
432783
433644
433644
433650
434492
434492
434709
435515
436084
436084
436345
437093
437093
437150
438189
438189
438200
439038
439405
439405
440087
440087
440304
441187
441463
441463
442073
442749
442989
442989
443350
444077
444077
444237
444671
445519
445519
445755
446599
446718
446718
447620
447620
448211
448211
449049
449092
449092
449402
450129
450575
450575
451427
451427
451682
452295
452295
453147
453147
453678
453985
453985
454804
454804
455593
455593
456399
456404
456404
457253
457253
458145
458145
458150
459038
459038
459284
459952
459952
460847
460847
461091
461752
461752
462525
462525
462877
463570
463808
463808
464474
464474
465374
465374
465621
466256
466256
467079
467079
467889
467889
468513
468705
468705
469530
469530
470367
470367
471052
471052
471213
472149
472430
472430
472500
473150
473899
473971
473971
474385
474619
475649
475833
475833
476184
476703
476703
477477
477477
478251
478251
479016
479016
479806
479806
480067
480630
480630
481498
481498
481752
482348
482348
483201
483201
483450
484084
484084
484991
484991
485237
485881
485881
486755
486755
487002
487647
487647
488546
488546
488797
489457
489457
490342
490342
490350
491214
491214
492099
492114
492114
493019
493019
493259
493904
493904
494756
494756
495599
495602
495602
496455
496455
497329
497329
497574
498189
498189
499082
499082
499322
500017
500017
500271
500943
500943
501849
501849
502072
502723
502723
503599
503599
503856
504481
504481
505348
505348
505596
506191
506191
507018
507018
507266
507891
507891
508789
508789
509034
509677
509677
510548
510548
510757
511421
511421
512282
512282
513088
513088
513329
513891
513891
514704
514704
515526
515526
516139
516331
516331
517013
517013
517952
517952
518200
518767
518767
519570
519570
520386
520386
520640
521209
521209
522021
522021
522815
522815
523594
523594
523600
524364
524978
525123
525123
525871
525871
526596
527051
527332
527332
528062
528062
528413
529171
529171
529899
529971
529971
530783
530783
530950
531790
532349
532409
532813
532813
533734
533734
533750
534682
534682
534800
535735
535735
536396
536396
537083
537556
537556
538299
538357
538999
539041
539041
539786
539786
540329
540484
541259
541259
541881
542452
542452
543168
543168
543417
544113
544113
544360
545085
545085
545339
546063
546063
547030
547030
547278
548018
548018
548264
549034
549034
549279
550044
550044
550289
551059
551059
551315
552062
552062
552302
553074
553074
553893
554095
554095
555068
555068
555325
556026
556026
556271
557003
557003
557258
557965
557965
558886
558886
559492
559824
559824
560070
560773
560773
561679
561679
561928
562616
562616
563401
563526
563526
564382
564382
565216
565441
565441
566013
566013
566834
566834
567693
567693
567700
568595
568595
568846
569765
569979
569979
570776
571178
571230
571230
572067
572305
572888
572888
573133
573673
573673
574460
574460
575296
575296
575545
576259
576259
576506
577208
577208
578179
578179
578431
579141
579141
579388
580060
580060
580986
580986
581237
581911
581911
582163
582839
582839
583753
583753
584007
584687
584687
584938
585617
585617
586541
586541
586785
587445
587445
587710
588357
589049
589228
589228
590068
590068
590316
590897
590897
591746
591746
591850
592608
592608
593477
593477
593720
594351
594351
595166
595166
595990
595990
596240
596864
596864
597114
597886
597886
598150
598901
598901
599869
599869
600118
600790
600790
601033
601729
601729
602661
602661
602915
603568
603568
604427
604427
604487
605398
605398
606069
606549
606768
606768
607599
607700
607700
608649
608744
608744
609699
609715
609715
610749
610751
610751
611799
611976
611976
612150
613107
613107
613200
614112
614112
614835
614835
615568
615803
615803
616305
617031
617031
617050
617750
617750
618596
618596
619172
619172
619882
619882
620595
620595
621311
621311
622033
622033
622771
622771
623534
623534
624328
624328
624577
625152
625152
625998
625998
626830
626975
626975
627656
627656
628449
628449
629207
629207
629979
629979
630511
630867
631121
631121
631869
631869
632673
633137
633137
633150
634199
634219
634219
634955
634955
635265
636251
636363
636821
636821
637232
637918
637918
638672
638672
639446
639446
639450
640263
640263
641127
641127
641376
642005
642005
642881
642881
643132
643739
643739
644576
644576
645386
645386
645630
646186
646186
646970
646970
647760
647760
648008
648800
648800
649384
649384
650268
650268
650516
651211
651211
651449
652369
652369
653023
653023
653279
653924
653924
654818
654818
655066
655734
655734
655974
656628
656628
657524
657999
658002
658433
658433
659347
659347
659603
660287
660287
660532
661485
661800
661800
661850
662573
662977
663599
663795
663795
664397
664397
665327
665327
665350
666178
666178
666813
667270
667270
667835
668223
668223
669157
669157
669600
669600
670531
670531
670600
671454
671944
672181
672181
672419
673146
673146
673855
673855
674599
674599
675363
675363
676158
676158
676389
676981
676981
677802
677802
678573
678573
678814
679367
679367
680198
680198
681095
681095
681100
682029
682029
682273
682961
682961
683899
683905
683905
684812
684812
685054
685678
685678
686562
686562
686806
687500
687500
687750
688510
688510
689475
689475
689728
690459
690459
690704
691447
691447
691677
692424
692424
692675
693382
693382
694327
694327
694573
695232
695232
696112
696112
696354
697026
697026
697899
697911
697911
698876
698876
699114
699888
699888
700129
700930
700930
701180
701959
701959
702207
702941
702941
703191
703887
703887
704843
704843
705088
705814
705814
706061
706789
706789
707039
707710
707710
708576
708576
709449
709451
709451
710368
710368
710613
711332
711332
711584
712295
712295
713237
713237
713489
714143
714143
715041
715041
715050
715957
715957
716205
716878
716878
717761
717761
718011
718603
718603
719493
719493
719736
720439
720439
720683
721418
721418
722399
722406
722406
723384
723384
723635
724342
724342
724586
725260
725260
726157
726157
726407
727051
727051
727954
727954
728199
728866
728866
729749
729750
729750
730608
730608
731498
731498
731500
732376
732376
733214
733214
733464
734082
734082
734958
734958
735211
735798
735798
736654
736654
736901
737517
737517
738341
738341
739191
739191
739200
740098
740098
740343
741046
741046
741951
741951
742198
742883
742883
743129
743820
743820
744763
744763
745010
745696
745696
745945
746657
746657
746907
747627
747627
748590
748590
748839
749538
749538
749784
750502
750502
750750
751477
751477
752436
752436
752680
753345
753345
753594
754278
754278
755230
755230
755482
756194
756194
756452
757152
757152
758082
758082
758325
758949
758949
759793
759793
760041
760655
760655
761589
761589
761600
762518
762518
762766
763434
763434
764368
764368
764615
765335
765335
765588
766278
766278
767199
767204
767204
768161
768161
768415
769125
769125
769371
770055
770055
770961
770961
771217
771897
771897
772149
772833
772833
773696
773696
773945
774564
774564
775453
775453
775708
776375
776375
777272
777272
777527
778166
778166
779092
779092
779100
780041
780041
780290
780998
780998
781899
781902
781902
782807
782807
783060
783746
783746
784692
784692
784700
785596
785596
785843
786477
786477
787414
787414
787654
788386
788386
788635
789332
789332
790225
790225
790478
791124
791124
792048
792048
792050
792957
792957
793212
793867
793867
794794
794794
795047
795683
795683
796509
796509
796764
797350
797350
798221
798221
798470
799152
799152
800097
800097
800100
801024
801024
801275
801919
801919
802817
802817
803070
803725
803725
804649
804660
804660
805571
805571
805821
806457
806457
807363
807363
807613
808317
808317
808567
809292
809292
809552
810269
810269
811267
811267
811523
812278
812278
812529
813269
813269
813521
814174
814174
815068
815068
815319
815967
815967
816896
816896
816900
817785
817785
818034
818675
818675
819591
819591
819841
820526
820526
821425
821425
821679
822260
822260
823127
823127
823376
824034
824034
824289
824975
824975
825869
825869
826125
826754
826754
827673
827673
827922
828621
828621
828872
829589
829589
830549
830556
830556
831491
831491
831742
832453
832453
832707
833417
833417
834385
834385
834638
835316
835316
835564
836207
836207
837096
837096
837347
838006
838006
838908
838908
839157
839763
839763
840621
840621
840873
841504
841504
842412
842412
842666
843310
843310
844199
844206
844206
845145
845145
845398
846072
846072
846967
846967
847226
847854
847854
848748
848748
848750
849642
849642
849889
850525
850525
851387
851387
852249
852253
852253
853165
853165
853999
854014
854014
854864
854864
855707
855707
855947
856585
856585
857444
857444
857696
858319
858319
859168
859168
859417
859977
859977
860741
860741
861506
861506
862273
862273
863077
863077
863323
863927
863927
864790
864790
865049
865633
865633
866467
866467
866718
867317
867317
868196
868196
868446
869105
869105
869966
869966
870775
870775
871023
871632
871632
871881
872583
872583
873558
873558
873808
874571
874571
874822
875596
875596
875845
876617
876617
876869
877623
877623
877875
878589
878589
879544
879544
879550
880501
880501
880754
881469
881469
881722
882462
882462
882716
883466
883466
883750
884469
884469
885472
885472
885719
886471
886471
886723
887416
887416
887669
888371
888371
889341
889341
889350
890328
890328
890578
891315
891315
891567
892252
892252
892503
893227
893227
894221
894221
894475
895216
895216
895466
896164
896164
896415
897089
897089
897993
897993
898243
898838
898838
899712
899712
899966
900691
900691
900948
901720
901720
901972
902763
902763
903013
903729
903729
904727
904727
904981
905706
905706
905961
906654
906654
907549
907553
907553
908451
908451
908699
909401
909401
909656
910371
910371
911298
911298
911549
912259
912259
912510
913253
913253
913512
914263
914263
914550
915270
915270
916262
916262
916518
917253
917253
917508
918206
918206
918459
919132
919132
920081
920081
920332
921053
921053
921312
922013
922013
922937
922937
923192
923897
923897
924149
924864
924864
925118
925838
925838
926744
926744
926995
927683
927683
927938
928655
928655
928915
929637
929637
930600
930600
930849
931567
931567
931816
932498
932498
933343
933343
933599
934208
934208
935124
935124
935378
936058
936058
936949
936951
936951
937845
937845
938099
938763
938763
939687
939687
939941
940553
940553
941423
941423
941671
942333
942333
942590
943267
943267
944153
944153
944978
944978
945234
945820
945820
946715
946715
946969
947680
947680
947934
948649
948649
948904
949632
949632
950599
950606
950606
951529
951529
951786
952427
952427
953347
953347
953603
954303
954303
954552
955259
955259
955515
956215
956215
957157
957157
957415
958073
958073
958999
959011
959011
959966
959966
960221
960913
960913
961162
961818
961818
962730
962730
962982
963684
963684
963932
964641
964641
965604
965604
965861
966554
966554
966810
967484
967484
968361
968361
968602
969237
969237
970109
970109
970358
971000
971000
971253
971974
971974
972953
972953
973213
973954
973954
974210
974926
974926
975183
975894
975894
976849
976861
976861
977822
977822
978071
978694
978694
979588
979588
979844
980523
980523
980779
981497
981497
982436
982436
982692
983358
983358
983610
984326
984326
984580
985287
985287
986227
986227
986496
987085
987085
987943
987943
988194
988804
988804
989652
989652
990467
990467
990720
991309
991309
992184
992184
992434
993035
993035
993984
993984
994000
994615
995397
995397
995400
996228
996228
997118
997118
997358
998042
998042
998287
998963
998963
999880
999880
1000133
1000741
1000741
1001600
1001600
1001852
1002462
1002462
1003278
1003278
1004069
1004069
1004849
1004860
1004860
1005678
1005678
1006534
1006534
1006782
1007430
1007430
1008293
1008293
1008549
1009096
1009096
1009919
1009919
1010785
1010785
1011037
1011707
1011707
1011958
1012628
1012628
1013551
1013551
1013807
1014509
1014509
1014763
1015487
1015487
1015740
1016424
1016424
1017385
1017385
1017633
1018347
1018347
1018602
1019325
1019325
1020249
1020259
1020259
1021180
1021180
1021430
1022118
1022118
1022368
1023072
1023072
1023987
1023987
1024235
1024833
1024833
1025701
1025701
1025956
1026620
1026620
1027594
1027594
1027600
1028526
1028526
1028778
1029429
1029429
1030376
1030376
1030631
1031361
1031361
1031620
1032309
1032309
1033189
1033189
1033436
1033995
1033995
1034879
1034879
1035135
1035825
1035825
1036080
1036818
1036818
1037076
1037828
1037828
1038100
1038857
1038857
1039150
1039884
1039884
1040883
1040883
1041136
1041882
1041882
1042134
1042886
1042886
1043130
1043881
1043881
1044144
1044839
1044839
1045799
1045800
1045800
1046782
1046782
1047042
1047730
1047730
1047984
1048665
1048665
1049617
1049617
1049872
1050573
1050573
1050830
1051517
1051517
1052449
1052462
1052462
1053442
1053442
1053704
1054435
1054435
1054683
1055427
1055427
1055676
1056421
1056421
1056667
1057395
1057395
1058348
1058348
1058602
1059319
1059319
1059574
1060291
1060291
1060547
1061248
1061248
1062162
1062162
1062419
1063083
1063083
1063999
1064003
1064003
1064863
1064863
1065723
1065723
1065979
1066617
1066617
1066869
1067551
1067551
1068445
1068445
1068701
1069371
1069371
1069614
1070330
1070330
1071300
1071300
1071550
1072205
1072205
1072458
1073131
1073131
1074056
1074056
1074304
1074960
1074960
1075830
1075830
1076079
1076724
1076724
1077643
1077643
1077650
1078593
1078593
1078852
1079509
1079509
1080445
1080445
1080450
1081403
1081403
1081653
1082342
1082342
1082593
1083282
1083282
1084215
1084215
1084470
1085153
1085153
1086020
1086020
1086272
1086925
1086925
1087175
1087842
1087842
1088768
1088768
1089021
1089702
1089702
1090567
1090567
1090818
1091439
1091439
1092324
1092324
1092571
1093223
1093223
1094086
1094086
1094329
1094963
1094963
1095214
1095868
1095868
1096794
1096794
1097040
1097685
1097685
1098586
1098586
1098840
1099495
1099495
1099744
1100430
1100430
1101368
1101368
1101620
1102264
1102264
1103168
1103168
1103421
1104087
1104087
1104339
1104999
1104999
1105900
1105900
1106158
1106760
1106760
1107615
1107615
1107863
1108470
1108470
1109290
1109290
1110083
1110083
1110898
1110898
1110900
1111746
1111746
1112641
1112641
1112890
1113563
1113563
1113814
1114487
1114487
1115394
1115394
1115652
1116245
1116245
1117113
1117113
1117350
1117998
1117998
1118917
1118917
1119163
1119811
1119811
1120695
1120695
1120700
1121610
1121610
1121861
1122524
1122524
1123429
1123429
1123675
1124343
1124343
1124588
1125281
1125281
1126246
1126246
1126502
1127159
1127159
1127403
1128135
1128135
1128401
1129143
1129143
1130132
1130132
1130387
1131077
1131077
1131337
1132004
1132004
1132938
1132938
1133194
1133871
1133871
1134125
1134800
1134800
1135663
1135663
1135914
1136542
1136542
1137464
1137464
1137709
1138445
1138445
1138692
1139363
1139363
1140267
1140267
1140515
1141187
1141187
1141439
1142147
1142147
1143076
1143076
1143328
1144008
1144008
1144257
1144944
1144944
1145861
1145861
1146113
1146719
1146719
1147585
1147585
1147837
1148484
1148484
1148740
1149411
1149411
1150298
1150298
1150547
1151213
1151213
1152163
1152163
1152421
1153093
1153093
1153347
1153977
1153977
1154892
1154892
1155149
1155816
1155816
1156717
1156717
1156963
1157585
1157585
1158484
1158484
1158734
1159424
1159424
1159674
1160382
1160382
1161299
1161299
1161300
1162249
1162249
1162506
1163230
1163230
1163488
1164180
1164180
1165066
1165066
1165303
1165746
1165924
1166784
1166784
1167018
1167649
1167649
1168649
1168721
1168721
1169699
1169723
1169723
1170516
1170516
1171449
1171566
1171566
1172010
1172150
1173059
1173059
1173899
1173921
1174551
1174551
1175245
1175245
1175300
1175667
1176028
1176754
1176754
1177749
1177763
1177763
1178375
1178450
1179491
1179491
1179500
1180316
1180316
1181020
1181020
1181734
1181734
1182484
1182484
1183300
1183567
1183567
1184184
1184184
1184430
1185085
1185347
1185982
1185982
1186241
1187157
1187157
1187833
1188097
1188097
1188949
1189227
1189227
1189300
1189678
1190556
1190949
1190949
1191050
1191801
1191801
1192799
1193032
1193032
1193819
1193819
1194510
1194608
1195193
1195389
1195389
1196188
1196188
1196447
1196740
1197253
1197759
1197759
1198234
1199099
1199225
1199225
1200145
1200145
1200150
1201131
1201131
1201200
1201893
1201900
1202904
1202904
1202951
1203575
1203650
1204516
1204516
1204776
1205699
1205699
1206345
1206345
1206612
1207225
1207225
1208080
1208080
1208897
1208897
1208900
1209371
1210243
1210243
1210713
1210713
1211282
1211514
1212091
1212091
1213099
1213173
1213173
1213897
1213897
1214564
1214564
1215438
1215438
1216249
1216318
1216318
1216867
1217543
1217543
1217650
1218440
1218440
1219133
1219133
1219963
1219963
1220766
1220766
1220800
1221587
1221587
1222210
1222210
1223093
1223093
1223331
1223994
1223994
1224904
1224904
1225146
1225772
1225772
1226665
1226665
1226913
1227599
1227599
1227845
1228520
1228520
1229431
1229431
1229673
1230327
1230327
1231239
1231239
1231479
1232171
1232171
1232412
1233116
1233116
1234054
1234054
1234284
1234959
1234959
1235455
1235897
1235897
1236817
1236817
1237052
1237699
1237699
1238558
1238558
1239339
1239453
1239453
1240303
1240426
1240426
1241359
1241359
1242075
1242272
1242272
1243195
1243195
1243200
1244147
1244147
1244412
1245089
1245089
1245986
1245986
1246247
1246893
1246893
1247726
1247782
1247782
1248199
1249031
1249031
1249539
1249539
1250422
1250422
1250689
1251295
1251295
1252136
1252398
1252398
1253222
1253222
1254049
1254075
1254703
1254703
1254969
1255616
1256149
1256163
1256506
1256506
1257399
1257399
1258016
1258338
1258338
1259282
1259282
1259544
1260212
1260212
1260467
1261135
1261135
1262086
1262086
1262344
1263042
1263042
1263295
1263985
1264237
1264237
1264959
1264959
1265929
1265929
1266177
1266898
1266898
1267134
1267817
1267817
1268737
1268737
1268750
1269706
1269706
1270499
1270644
1270644
1271538
1271538
1271550
1272428
1272428
1273231
1273349
1273349
1274247
1274247
1274483
1275122
1275122
1275980
1275980
1276229
1276871
1276871
1277805
1277805
1278055
1278707
1278707
1279587
1279587
1279835
1280481
1280481
1280732
1281423
1281423
1282366
1282366
1282618
1283268
1283520
1283520
1284171
1284171
1284995
1284995
1285779
1285779
1286537
1286770
1286770
1287591
1287591
1287789
1288441
1288441
1289324
1289324
1290093
1290093
1290102
1290842
1291392
1291849
1292039
1292039
1292768
1292768
1293252
1293877
1294004
1294004
1294741
1294741
1295699
1295715
1296225
1296225
1297034
1297127
1297127
1297979
1297979
1298190
1298906
1298906
1299826
1299826
1300082
1300767
1300767
1301005
1301680
1301680
1302617
1302617
1302855
1303591
1303591
1303842
1304575
1304575
1304832
1305569
1305569
1306539
1306539
1306550
1307543
1307543
1307794
1308551
1308551
1309211
1309512
1309512
1310267
1310444
1311055
1311055
1311318
1311527
1312379
1312379
1313001
1313001
1313844
1313844
1313900
1314663
1314663
1314950
1315784
1315784
1316417
1316417
1316996
1317578
1317578
1318195
1318195
1319106
1319106
1319162
1320199
1320240
1320240
1320670
1321599
1321789
1321789
1322036
1322745
1322745
1323002
1323739
1323739
1324749
1324749
1324750
1325756
1325756
1326019
1326734
1326734
1326992
1327693
1327693
1327939
1328626
1328626
1329522
1329522
1329769
1330404
1330404
1331260
1331260
1331507
1332166
1332166
1333131
1333131
1333387
1334100
1334100
1334352
1335075
1335075
1335329
1336017
1336017
1336952
1336952
1337199
1337902
1337902
1338157
1338796
1338796
1339717
1339717
1339971
1340655
1340655
1340910
1341813
1341813
1342465
1342699
1342699
1343455
1343455
1344231
1344231
1344513
1345099
1345099
1345957
1345957
1346799
1346822
1346822
1347719
1347719
1347850
1348313
1348618
1349514
1349514
1350292
1350386
1350386
1351224
1351699
1351864
1351864
1352050
1352844
1352844
1353689
1353689
1353939
1354597
1354597
1355543
1355543
1355550
1356474
1356474
1357124
1357644
1357644
1357651
1358541
1358541
1359160
1359160
1360036
1360036
1360766
1360766
1360889
1361712
1361712
1362520
1362520
1362998
1363351
1363351
1363962
1363962
1364884
1364884
1365135
1365963
1365963
1366585
1366585
1367444
1367444
1367450
1368300
1368547
1369186
1369186
1369435
1370087
1370087
1370328
1371008
1371008
1371949
1371949
1372201
1372902
1372902
1373157
1373862
1373862
1374542
1374809
1374809
1375766
1375766
1375994
1376722
1376722
1376980
1377627
1377627
1378574
1378574
1378830
1379552
1379552
1379805
1380541
1380541
1380795
1381550
1381550
1381804
1382531
1382531
1383549
1383557
1383557
1384563
1384563
1385130
1385539
1385539
1386252
1386460
1386460
1387399
1387400
1388099
1388277
1388277
1388961
1388961
1389389
1390199
1390247
1390247
1390917
1390917
1391827
1391827
1392592
1392713
1392713
1393584
1393584
1393826
1394451
1394451
1395312
1395312
1395577
1396168
1396168
1397019
1397019
1397878
1397878
1398133
1398753
1398753
1399598
1399598
1399824
1400471
1400471
1401375
1401375
1401620
1402301
1402301
1402547
1403263
1403263
1403517
1404267
1404267
1404550
1405306
1405306
1405600
1406340
1406340
1407320
1407320
1407569
1408379
1408379
1408631
1409443
1409443
1409450
1410486
1410486
1410744
1411511
1411511
1411766
1412523
1412523
1412776
1413499
1413499
1413753
1414448
1414448
1415370
1415370
1416099
1416132
1416644
1416644
1417499
1417538
1417538
1418001
1418899
1419143
1419143
1419250
1420093
1420093
1420866
1420866
1421622
1421622
1422297
1422297
1422969
1422969
1423202
1423896
1423896
1424806
1424806
1425051
1425734
1425734
1426391
1426695
1426695
1427630
1427630
1427896
1428591
1428591
1429128
1429749
1429823
1430449
1430541
1430541
1431285
1431285
1432118
1432118
1432200
1432654
1432931
1433807
1433807
1434495
1434495
1435300
1435300
1436049
1436381
1436381
1436400
1437188
1437188
1438099
1438099
1438770
1438770
1439549
1439615
1439615
1440577
1440577
1440852
1441451
1441451
1442317
1442317
1442566
1443162
1443162
1444030
1444030
1444281
1444917
1444917
1445810
1445810
1446055
1446699
1446699
1446946
1447619
1447619
1448553
1448553
1448811
1449493
1449493
1449746
1450413
1450413
1451331
1451331
1451573
1452285
1452285
1452534
1453247
1453247
1454207
1454207
1454455
1455121
1455121
1455370
1456038
1456038
1456976
1456976
1457228
1457941
1457941
1458190
1458887
1458887
1459781
1459781
1460027
1460664
1460664
1461571
1461571
1461814
1462467
1462467
1462718
1463370
1463370
1464246
1464246
1465099
1465099
1465100
1465979
1465979
1466229
1466925
1466925
1467871
1467871
1468113
1468766
1468766
1469639
1469639
1469650
1470525
1470525
1470778
1471437
1471437
1472325
1472591
1472591
1473435
1473849
1473992
1473992
1474497
1475037
1475037
1475773
1475773
1476649
1476746
1476746
1477404
1477404
1478102
1478749
1478801
1478801
1479100
1480149
1480499
1480684
1480684
1481414
1481675
1482158
1482158
1482250
1483173
1483173
1483692
1483692
1484536
1484536
1484778
1485409
1485409
1486366
1486366
1486601
1487342
1487342
1487582
1488310
1488598
1488598
1489214
1489379
1490051
1490051
1490850
1490850
1491639
1491854
1492399
1492409
1492409
1493174
1493174
1493957
1493957
1494758
1494758
1495214
1495673
1496076
1496076
1496320
1497075
1497075
1497823
1497823
1498050
1499049
1499068
1499068
1499940
1500267
1500267
1500977
1500977
1501725
1501725
1502218
1502767
1503164
1503164
1503652
1503652
1504054
1504843
1504843
1505600
1505600
1506399
1506546
1507099
1507190
1507190
1507779
1508499
1508715
1508715
1509381
1509757
1509757
1510546
1510546
1510600
1511455
1511455
1511650
1512699
1512754
1512754
1513558
1513558
1514379
1514379
1514552
1515239
1515239
1516131
1516131
1516383
1517027
1517027
1517938
1517938
1518176
1518853
1518853
1519110
1519783
1519783
1520496
1520496
1521203
1521474
1522123
1522123
1522150
1522844
1523544
1523544
1523550
1524277
1524277
1525299
1525299
1525300
1526339
1526339
1526350
1527374
1527374
1527463
1528393
1528393
1528638
1529378
1529639
1529639
1530330
1530330
1531209
1531209
1531470
1532119
1532119
1532661
1533081
1533081
1534027
1534027
1534274
1534921
1535183
1535728
1535728
1535821
1536736
1536736
1537506
1537631
1537631
1537900
1538517
1539000
1539000
1539395
1539650
1540255
1541025
1541025
1541050
1541706
1541750
1542642
1542642
1542978
1543768
1543768
1544427
1544427
1544680
1545366
1545366
1546283
1546283
1546548
1546847
1547644
1547644
1547700
1548538
1548538
1549205
1549205
1549521
1550254
1550254
1550500
1550953
1551778
1552249
1552250
1552250
1553299
1553309
1553309
1554244
1554244
1554350
1555058
1555058
1555893
1555893
1556742
1556742
1556971
1557849
1557865
1557865
1558555
1558555
1559500
1559756
1559756
1560455
1560708
1560708
1561422
1561422
1562371
1562628
1562628
1563449
1563538
1564149
1564227
1564227
1565181
1565181
1565200
1565805
1566417
1566706
1567053
1567053
1567909
1568164
1568164
1568919
1568919
1569238
1570026
1570295
1570295
1570556
1571163
1571163
1572039
1572039
1572302
1572911
1572911
1573773
1573773
1574615
1574615
1574857
1575445
1575445
1576331
1576331
1576580
1577286
1577286
1577531
1578286
1578286
1578537
1579301
1579301
1579552
1580328
1580328
1580600
1581364
1581364
1582259
1582387
1582387
1583342
1583342
1583598
1584301
1584301
1584553
1585271
1585271
1585510
1586230
1586230
1587193
1587193
1587421
1588160
1588160
1588908
1588908
1589000
1589385
1590089
1590089
1591039
1591039
1591284
1591997
1591997
1592242
1592954
1592954
1593895
1593895
1593900
1594821
1594821
1595072
1595706
1595706
1596585
1596585
1596837
1597486
1597486
1598422
1598422
1598677
1599390
1599390
1599649
1600368
1600368
1600614
1601271
1601271
1602106
1602106
1602893
1602893
1603141
1603716
1603716
1604575
1604575
1604819
1605470
1605470
1606384
1606384
1606637
1607296
1607296
1607551
1608430
1608430
1609288
1609288
1609300
1609844
1610601
1610601
1611350
1611350
1612093
1612093
1612100
1612891
1612891
1613805
1613805
1614071
1614707
1614707
1615597
1615597
1615600
1616486
1616486
1617349
1617354
1617354
1618239
1618239
1619097
1619097
1619100
1620002
1620002
1620251
1620982
1620982
1621234
1621989
1621989
1622250
1623040
1623040
1623300
1624075
1624075
1624350
1625078
1625078
1626092
1626092
1626100
1627095
1627095
1627346
1628049
1628049
1628298
1628957
1628957
1629822
1629822
1630068
1630766
1630766
1631016
1631729
1631729
1632720
1632720
1632971
1633724
1633724
1633973
1634728
1634728
1634972
1635720
1635720
1635966
1636702
1636702
1636953
1637664
1637664
1638593
1638593
1638843
1639530
1639530
1639783
1640475
1640475
1641432
1641432
1641688
1642340
1642340
1642595
1643281
1643281
1644222
1644222
1644468
1645168
1645168
1645414
1646097
1646097
1647001
1647001
1647251
1647929
1647929
1648181
1648887
1648887
1649817
1649817
1650059
1650757
1650757
1651005
1651705
1651705
1652654
1652654
1652903
1653595
1653595
1653844
1654522
1654522
1655439
1655439
1655695
1656329
1656329
1657192
1657192
1657444
1658096
1658096
1658342
1659018
1659018
1659924
1659924
1660174
1660809
1660809
1661700
1661700
1661952
1662598
1662598
1663468
1663468
1663715
1664354
1664354
1665279
1665279
1665533
1666216
1666216
1666470
1667128
1667128
1668042
1668042
1668292
1668937
1668937
1669826
1669826
1670081
1670688
1670688
1671580
1671580
1671831
1672478
1672478
1673335
1673335
1673581
1674160
1674160
1675002
1675002
1675255
1675885
1675885
1676788
1676788
1677044
1677694
1677694
1678596
1678596
1678600
1679528
1679528
1679784
1680461
1680461
1681388
1681388
1681636
1682281
1682281
1682526
1683198
1683198
1684100
1684100
1684354
1684998
1684998
1685908
1685908
1686157
1686859
1686859
1687107
1687844
1687844
1688098
1688828
1688828
1689780
1689780
1690033
1690744
1690744
1690997
1691697
1691697
1691950
1692632
1692632
1693584
1693584
1693837
1694534
1694534
1694784
1695459
1695459
1696392
1696392
1696647
1697337
1697337
1697589
1698288
1698288
1699231
1699231
1699484
1700147
1700147
1700397
1701082
1701082
1702018
1702018
1702270
1702957
1702957
1703208
1703857
1703857
1704770
1704770
1705020
1705707
1705707
1705954
1706651
1706651
1707580
1707580
1708349
1708483
1708483
1709346
1709346
1709598
1710175
1710175
1711013
1711013
1711264
1711873
1711873
1712728
1712728
1713558
1713558
1713809
1714409
1714409
1715285
1715285
1715540
1716161
1716161
1717003
1717003
1717258
1717854
1717854
1718717
1718717
1718974
1719605
1719605
1720471
1720471
1720720
1721361
1721361
1722289
1722289
1722539
1723201
1723201
1723451
1724113
1724113
1725046
1725046
1725303
1725991
1725991
1726244
1726918
1726918
1727859
1727859
1728109
1728803
1728803
1729057
1729749
1729749
1730688
1730688
1730940
1731634
1731634
1731895
1732540
1732540
1733414
1733414
1733664
1734315
1734315
1735255
1735255
1735509
1736159
1736159
1736412
1737064
1737064
1738003
1738003
1738258
1738931
1738931
1739830
1739830
1740083
1740777
1740777
1741031
1741748
1741748
1741996
1742681
1742681
1743612
1743612
1743865
1744561
1744561
1744810
1745487
1745487
1746353
1746353
1746604
1747237
1747237
1748134
1748134
1748391
1749010
1749010
1749870
1749870
1750118
1750796
1750796
1751713
1751713
1751966
1752602
1752602
1753482
1753482
1753733
1754388
1754388
1754642
1755309
1755309
1756204
1756204
1756449
1757101
1757101
1758006
1758006
1758266
1758906
1758906
1759780
1759780
1760031
1760697
1760697
1760951
1761640
1761640
1762556
1762556
1762807
1763444
1763444
1764343
1764343
1764350
1765229
1765229
1766082
1766082
1766334
1766969
1766969
1767218
1767912
1767912
1768850
1768850
1769103
1769794
1769794
1770049
1770725
1770725
1771671
1771671
1771928
1772626
1772626
1772883
1773585
1773585
1773837
1774538
1774538
1775462
1775462
1775713
1776395
1776395
1776648
1777328
1777328
1778253
1778253
1778483
1779155
1779155
1780040
1780040
1780289
1780940
1780940
1781190
1781866
1781866
1782765
1782765
1783013
1783709
1783709
1784649
1784657
1784657
1785621
1785621
1785873
1786548
1786548
1786801
1787492
1787492
1788443
1788443
1788694
1789401
1789401
1789651
1790333
1790333
1791291
1791291
1791300
1792247
1792247
1792504
1793201
1793201
1794099
1794108
1794108
1795046
1795046
1795305
1795992
1796250
1796250
1796880
1797132
1797777
1797777
1798029
1798688
1798688
1799567
1799567
1799818
1800492
1800492
1801444
1801444
1801450
1802359
1802359
1802604
1803274
1803274
1804202
1804202
1804454
1805125
1805125
1805378
1806013
1806013
1806950
1806950
1807198
1807893
1807893
1808151
1808822
1808822
1809733
1809733
1809985
1810634
1810634
1811551
1811551
1811803
1812477
1812477
1812726
1813385
1813385
1814325
1814325
1814578
1815270
1815270
1816149
1816151
1816151
1817052
1817052
1817302
1817978
1817978
1818911
1818911
1819163
1819873
1819873
1820128
1820818
1820818
1821065
1821776
1821776
1822746
1822746
1823003
1823721
1823721
1823969
1824672
1824672
1824925
1825633
1825633
1826598
1826598
1826854
1827564
1827564
1827817
1828472
1828472
1829379
1829379
1829631
1830338
1830338
1830590
1831299
1831299
1832225
1832225
1832472
1833174
1833174
1833430
1834137
1834137
1834393
1835086
1835086
1835992
1835992
1836248
1836922
1836922
1837182
1837878
1837878
1838830
1838830
1839086
1839757
1839757
1840623
1840731
1840731
1841496
1841496
1842058
1842058
1842611
1843238
1843238
1844113
1844113
1844366
1844962
1844962
1845831
1845831
1846086
1846743
1846743
1846996
1847665
1847665
1848565
1848565
1848818
1849492
1849492
1850435
1850435
1850686
1851361
1851361
1851620
1852271
1852271
1853224
1853224
1853482
1854174
1854174
1854432
1855093
1855093
1856049
1856052
1856052
1857023
1857023
1857143
1857959
1857959
1858849
1858855
1858855
1859760
1859760
1860021
1860694
1860694
1861570
1861570
1861820
1862470
1862470
1862721
1863427
1863427
1864381
1864381
1864637
1865332
1865332
1865586
1866281
1866281
1867240
1867240
1867250
1868178
1868178
1868425
1869045
1869045
1869895
1869895
1870141
1870779
1870779
1871739
1871739
1871992
1872691
1872691
1872945
1873644
1873644
1874559
1874559
1874810
1875498
1875498
1875754
1876458
1876458
1876714
1877430
1877430
1878378
1878378
1878635
1879359
1879359
1879612
1880348
1880348
1880602
1881340
1881340
1882289
1882289
1882300
1883246
1883246
1883500
1884205
1884205
1884459
1885161
1885161
1886074
1886074
1886328
1886996
1886996
1887248
1887938
1887938
1888884
1888884
1889140
1889836
1889836
1890098
1890763
1890763
1891704
1891704
1891959
1892662
1892662
1892916
1893592
1893592
1894503
1894503
1894752
1895444
1895444
1895694
1896392
1896392
1897302
1897302
1897551
1898233
1898233
1898483
1899176
1899176
1900121
1900121
1900372
1901041
1901041
1901298
1901988
1901988
1902944
1902944
1902950
1903891
1903891
1904142
1904816
1904816
1905749
1905760
1905760
1906725
1906725
1906973
1907698
1907698
1907949
1908632
1908632
1909578
1909578
1909824
1910536
1910536
1910785
1911487
1911487
1912362
1912362
1912617
1913247
1913247
1913501
1914169
1914169
1915117
1915117
1915368
1916090
1916090
1916343
1917028
1917028
1917987
1917987
1918238
1918971
1918971
1919227
1919966
1919966
1920225
1920920
1920920
1921170
1921894
1921894
1922880
1922880
1923134
1923874
1923874
1924124
1924832
1924832
1925079
1925778
1925778
1926720
1926720
1926978
1927664
1927664
1927922
1928602
1928602
1929489
1929489
1929750
1930363
1930363
1931254
1931254
1931307
1932089
1932089
1932932
1932932
1933184
1933868
1933868
1934131
1934829
1934829
1935828
1935828
1936082
1936829
1936829
1937083
1937831
1937831
1938095
1938825
1938825
1939084
1939797
1939797
1940716
1940716
1940972
1941634
1941634
1941879
1942586
1942586
1943543
1943543
1943550
1944504
1944504
1944754
1945474
1945474
1945729
1946464
1946464
1946714
1947466
1947466
1948442
1948442
1948450
1949439
1949439
1949691
1950449
1950449
1950704
1951447
1951447
1951709
1952397
1952397
1953349
1953351
1953351
1954316
1954316
1954573
1955292
1955292
1955550
1956228
1956228
1957162
1957162
1957415
1958085
1958085
1958338
1958972
1958972
1959872
1959872
1960125
1960791
1960791
1961687
1961687
1961944
1962539
1962539
1963413
1963413
1963665
1964308
1964308
1965222
1965222
1965474
1966079
1966079
1966937
1966937
1967199
1967793
1967793
1968617
1968617
1969423
1969423
1969677
1970251
1970251
1971092
1971092
1971899
1971910
1971910
1972699
1972699
1973462
1973462
1974259
1974259
1974509
1975072
1975072
1975860
1975860
1976685
1976685
1976942
1977530
1977530
1978388
1978388
1979199
1979199
1979449
1980015
1980015
1980857
1980857
1981109
1981769
1981769
1982651
1982651
1982903
1983515
1983515
1984416
1984416
1984670
1985334
1985334
1986228
1986228
1986479
1987098
1987098
1987354
1988021
1988021
1988947
1988947
1989204
1989822
1989822
1990708
1990708
1990958
1991606
1991606
1992504
1992504
1993238
1993368
1993368
1994237
1994237
1994476
1995113
1995113
1995987
1995987
1996243
1996796
1996796
1997638
1997638
1998499
1998509
1998509
1999367
1999367
2000185
2000185
2000624
2001268
2001268
2001837
2001837
2002653
2002653
2002901
2003508
2003508
2004421
2004421
2004665
2005353
2005353
2005610
2006309
2006309
2007239
2007239
2007495
2008173
2008173
2008432
2009099
2009099
2010025
2010025
2010277
2010960
2010960
2011212
2011885
2011885
2012810
2012810
2013061
2013728
2013728
2013972
2014650
2014650
2015578
2015578
2015828
2016497
2016497
2017385
2017385
2017639
2018236
2018236
2019126
2019126
2019377
2020036
2020036
2020288
2020972
2020972
2021920
2021920
2022169
2022865
2022865
2023116
2023767
2023767
2024692
2024692
2024947
2025611
2025611
2025856
2026555
2026555
2027524
2027524
2027777
2028443
2028443
2028689
2029335
2029335
2030235
2030235
2030480
2031073
2031073
2031864
2031864
2032627
2032627
2032880
2033629
2033629
2034151
2034413
2035042
2035042
2035508
2035635
2035951
2036883
2036883
2037137
2037821
2037821
2038078
2038770
2038770
2039728
2039728
2039976
2040683
2040683
2040936
2041641
2041641
2042588
2042588
2042600
2043529
2043529
2043780
2044471
2044471
2045399
2045409
2045409
2046318
2046318
2046571
2047256
2047256
2047510
2048242
2048242
2049154
2049279
2049279
2050273
2050273
2050530
2051325
2051325
2051577
2052399
2052415
2052415
2053359
2053486
2053486
2054484
2054484
2054739
2055491
2055491
2055738
2056505
2056505
2056760
2057510
2057510
2057762
2058520
2058520
2058770
2059516
2059516
2059764
2060462
2060462
2061416
2061416
2061664
2062368
2062368
2062621
2063330
2063330
2064299
2064307
2064307
2065281
2065281
2065531
2066273
2066273
2066519
2067271
2067271
2067522
2068243
2068243
2069199
2069212
2069212
2070176
2070176
2070436
2071126
2071126
2071562
2072042
2072042
2072971
2072971
2073230
2073859
2073859
2074762
2074762
2075020
2075681
2075681
2075935
2076626
2076626
2077577
2077577
2077831
2078536
2078536
2078783
2079506
2079506
2079745
2080445
2080445
2081449
2081518
2081518
2082271
2082271
2083113
2083113
2083370
2083958
2083958
2084859
2084859
2085107
2085798
2085798
2086283
2086717
2086717
2087626
2087626
2087879
2088528
2088528
2089421
2089421
2089673
2090311
2090311
2091225
2091225
2091472
2092146
2092146
2092397
2093063
2093063
2094000
2094000
2094258
2094959
2094959
2095209
2095923
2095923
2096849
2096861
2096861
2097797
2097797
2098050
2098705
2098705
2099588
2099588
2099840
2100489
2100489
2101399
2101412
2101412
2102352
2102352
2102610
2103317
2103317
2103571
2104310
2104310
2104568
2105268
2105268
2106247
2106247
2106501
2107233
2107233
2107486
2108233
2108233
2108489
2109210
2109210
2109462
2110202
2110202
2111199
2111200
2111200
2112174
2112174
2112429
2113125
2113125
2113383
2114084
2114084
2115049
2115050
2115050
2116001
2116001
2116254
2116955
2116955
2117211
2117926
2117926
2118200
2118922
2118922
2119898
2119898
2120150
2120877
2120877
2121134
2121846
2121846
2122100
2122785
2122785
2123685
2123685
2123927
2124547
2124547
2125451
2125451
2125707
2126377
2126377
2127269
2127269
2127527
2128206
2128206
2128457
2129166
2129166
2129422
2130154
2130154
2131149
2131154
2131154
2132120
2132120
2132377
2133088
2133088
2133338
2134057
2134057
2134311
2135018
2135018
2135944
2135944
2136161
2137076
2137076
2137686
2137686
2138486
2138486
2138500
2139285
2139285
2140112
2140112
2140353
2140990
2140990
2141942
2141942
2142204
2142890
2143149
2143149
2143831
2143831
2144695
2144695
2144946
2145568
2145568
2146464
2146464
2146717
2147385
2147385
2147636
2148322
2148322
2149265
2149265
2149522
2150204
2150204
2150459
2151128
2151128
2152032
2152032
2152285
2152959
2152959
2153215
2153931
2153931
2154901
2154901
2155154
2155886
2155886
2156144
2156869
2156869
2157123
2157790
2157790
2158731
2158731
2158985
2159696
2159696
2159953
2160703
2160703
2160958
2161703
2161703
2162635
2162882
2162882
2163565
2163565
2163828
2164443
2164443
2165045
2165554
2165554
2166170
2166170
2167111
2167111
2167365
2168064
2168064
2168949
2168961
2168961
2169886
2169886
2170124
2170849
2170849
2171107
2171812
2171812
2172785
2172785
2173039
2173752
2173752
2174001
2174669
2174669
2175585
2175585
2175847
2176518
2176518
2176772
2177471
2177471
2177724
2178418
2178418
2179307
2179307
2179563
2180230
2180230
2181178
2181178
2181429
2182118
2182118
2182373
2183023
2183023
2183953
2183953
2184204
2184867
2184867
2185121
2185764
2185764
2186712
2186712
2186975
2187692
2187692
2187942
2188664
2188664
2189568
2189568
2189814
2190500
2190500
2190757
2191442
2191442
2192399
2192401
2192401
2193285
2193285
2193544
2194198
2194198
2195158
2195158
2195414
2196120
2196120
2196378
2197052
2197052
2197935
2197935
2198190
2198850
2198850
2199104
2199800
2199800
2200734
2200734
2200989
2201612
2201612
2202524
2202524
2202781
2203491
2203491
2203747
2204457
2204457
2204708
2205397
2205397
2206366
2206366
2206623
2207344
2207344
2207601
2208311
2208311
2208563
2209257
2209257
2210219
2210219
2210473
2211196
2211196
2211452
2212142
2212142
2212398
2213109
2213109
2214086
2214086
2214343
2215064
2215064
2215322
2215989
2215989
2216241
2216962
2216962
2217940
2217940
2217950
2218830
2218830
2219678
2219678
2219936
2220551
2220551
2220805
2221485
2221485
2222463
2222463
2222713
2223366
2223366
2223621
2224311
2224311
2225233
2225233
2225493
2226162
2226162
2227030
2227030
2227284
2227923
2227923
2228178
2228843
2228843
2229811
2229811
2230069
2230739
2230739
2230994
2231617
2231617
2232512
2232512
2232753
2233417
2233417
2234311
2234311
2234560
2235173
2235173
2236049
2236049
2236304
2236960
2236960
2237867
2237867
2238119
2238684
2238684
2239487
2239487
2240349
2240357
2240357
2241228
2241228
2242099
2242205
2242205
2242450
2243018
2243577
2243577
2243901
2244601
2245067
2245067
2245808
2245808
2246041
2246795
2246795
2247610
2247900
2248117
2248117
2248873
2248873
2249642
2249642
2250408
2250408
2251170
2251170
2251414
2251924
2251924
2252673
2252673
2253420
2253420
2254173
2254173
2254933
2254933
2255690
2255690
2256449
2256705
2256705
2257324
2257324
2258199
2258200
2258803
2258803
2258900
2259462
2260206
2260206
2260882
2260882
2261280
2261602
2261867
2262559
2262559
2262826
2263513
2263513
2264431
2264431
2264689
2265333
2265333
2266216
2266216
2266480
2267050
2267050
2267876
2267876
2268132
2268726
2268726
2269594
2269594
2270449
2270454
2270454
2271298
2271298
2271575
2272399
2272399
2272597
2273599
2273694
2273694
2274376
2274376
2274874
2275475
2275752
2275752
2276338
2276593
2277449
2277467
2277467
2278284
2278284
2278883
2278883
2279684
2279963
2279963
2280724
2280724
2281649
2281658
2281658
2282524
2283049
2283293
2283419
2284015
2284015
2284367
2284450
2285187
2285187
2286199
2286207
2286207
2286724
2287324
2287787
2287787
2288155
2288979
2288979
2289000
2289904
2289904
2290718
2290923
2290923
2291133
2291899
2292397
2292397
2293199
2293259
2293259
2294072
2294072
2294922
2294922
2295408
2295408
2296008
2296008
2296730
2296730
2297457
2298019
2298019
2298100
2298965
2298965
2299621
2300008
2300008
2300576
2301101
2301599
2301656
2301656
2302551
2302551
2302930
2303699
2304014
2304014
2304192
2304853
2304853
2305666
2305666
2306463
2306463
2307141
2307271
2307271
2308115
2308115
2308540
2309164
2309378
2309815
2310273
2310273
2310350
2310908
2311533
2311533
2311979
2312379
2313149
2313225
2313765
2314080
2314080
2314738
2314738
2315076
2315949
2316042
2316042
2316697
2316697
2317323
2318049
2318102
2318102
2319017
2319277
2319277
2319957
2319957
2320196
2320926
2320926
2321899
2321912
2321912
2322897
2322897
2323138
2323887
2323887
2324131
2324864
2324864
2325112
2325812
2325812
2326770
2326770
2327010
2327749
2327749
2327992
2328753
2328753
2328995
2329765
2329765
2330013
2330778
2330778
2331023
2331762
2331762
2332744
2332929
2332929
2333677
2333933
2333933
2334557
2334557
2335132
2335661
2335661
2336229
2336640
2337017
2337017
2337895
2337895
2338587
2338587
2338852
2339107
2340077
2340077
2340100
2340874
2340874
2341304
2342014
2342014
2342470
2343029
2343029
2343558
2343971
2344579
2344579
2345138
2345699
2345777
2345777
2346109
2347033
2347449
2347457
2347457
2348256
2348256
2349173
2349173
2349200
2350232
2350232
2350903
2350903
2351326
2351326
2352311
2352556
2352885
2352885
2353446
2353446
2354067
2354728
2354918
2354918
2355760
2355760
2356220
2356220
2357038
2357038
2357391
2358184
2358184
2358952
2358952
2359211
2359939
2360392
2360438
2360438
2361000
2361365
2362149
2362149
2362150
2362774
2362850
2363346
2363972
2363972
2364889
2365299
2365349
2365349
2366057
2366057
2366568
2367253
2367253
2367757
2367757
2368717
2368717
2369215
2369215
2369714
2369851
2370498
2371240
2371362
2371362
2372214
2372498
2372999
2373045
2373045
2373869
2373869
2374131
2374652
2375236
2375652
2375652
2376450
2376813
2376813
2377522
2377522
2378166
2378166
2378281
2379185
2379185
2379350
2379855
2380699
2380850
2380850
2381710
2381840
2381840
2382100
2382823
2382823
2383849
2383911
2383911
2384687
2384930
2384930
2385572
2386203
2386428
2386999
2387025
2387025
2387991
2387991
2388507
2388507
2389249
2389249
2389901
2389901
2390286
2391196
2391196
2391200
2392035
2392390
2392390
2393127
2393127
2393913
2394229
2394599
2394599
2394837
2395607
2396002
2396002
2396799
2396873
2396873
2397759
2397759
2398477
2398477
2399249
2399461
2399461
2400142
2400535
2400535
2400650
2401402
2401402
2402334
2402334
2402878
2403353
2403353
2403812
2403812
2404151
2405184
2405444
2405884
2405884
2406364
2406364
2407031
2407031
2407829
2407829
2408560
2408996
2408996
2409668
2409668
2409813
2410596
2410848
2410848
2411535
2411535
2412408
2412899
2413110
2413110
2413493
2413600
2414125
2414935
2414935
2415044
2415672
2415851
2416204
2416904
2416904
2417612
2417612
2418089
2418150
2418926
2418926
2419528
2419756
2420423
2420423
2420673
2421364
2421364
2422299
2422559
2422559
2423186
2423186
2423449
2424444
2424444
2424872
2424872
2425531
2425531
2425850
2426899
2426952
2426952
2427551
2427600
2428518
2428518
2429289
2429289
2429398
2429802
2430569
2430569
2431289
2431289
2431842
2431842
2432307
2432567
2433247
2433247
2434187
2434438
2434438
2435277
2435277
2435300
2436198
2436198
2436850
2436850
2437620
2437620
2437874
2438799
2438812
2439406
2439406
2440163
2440163
2440659
2441249
2441277
2441610
2442299
2442338
2442338
2442741
2443686
2443811
2443811
2444749
2444754
2444754
2445682
2445682
2445800
2446738
2446738
2446850
2447708
2447708
2448580
2448580
2448600
2449591
2449591
2450312
2450312
2450444
2451374
2451374
2451887
2452374
2452374
2452555
2453361
2453361
2453514
2454549
2454599
2454599
2454997
2455447
2456014
2456014
2456745
2457285
2457285
2457350
2457742
2458424
2458424
2459092
2459616
2459616
2460360
2460593
2460593
2461132
2461368
2461928
2461928
2462730
2462730
2463557
2463557
2463805
2464414
2464414
2465308
2465308
2465561
2466237
2466237
2466469
2467174
2467174
2468118
2468118
2468368
2469069
2469069
2469319
2469994
2469994
2470919
2470919
2471167
2471822
2471822
2472699
2472699
2472950
2473582
2473582
2474450
2474450
2474708
2475304
2475304
2476178
2476178
2476430
2477079
2477079
2477979
2477979
2478243
2478911
2478911
2479163
2479809
2479809
2480686
2480686
2480926
2481560
2481560
2482512
2482512
2482757
2483452
2483452
2483706
2484335
2484335
2485236
2485236
2485496
2486143
2486143
2487099
2487100
2487100
2488092
2488092
2488338
2489093
2489093
2489342
2490056
2490056
2490302
2490976
2490976
2491874
2491874
2492123
2492991
2492991
2493537
2493537
2494342
2494342
2494939
2494939
2495295
2496174
2496174
2496662
2497249
2497461
2497461
2497712
2498268
2498968
2499101
2499101
2499978
2499978
2500227
2500922
2500922
2501170
2501876
2501876
2502809
2502809
2503060
2503707
2503707
2504563
2504563
2504817
2505425
2505425
2506335
2506335
2506581
2507280
2507280
2507529
2508271
2508271
2508522
2509203
2509203
2510199
2510203
2510203
2511226
2511226
2511477
2512251
2512251
2512504
2513311
2513311
2513561
2514296
2514296
2514546
2515304
2515304
2515555
2516323
2516323
2516574
2517342
2517342
2517589
2518333
2518333
2519224
2519224
2519474
2520035
2520035
2520895
2520895
2521139
2521831
2521831
2522100
2522869
2522869
2523150
2523875
2523875
2524854
2524854
2525096
2525794
2525794
2526052
2526741
2526741
2527667
2527667
2527918
2528600
2528600
2528844
2529545
2529545
2530487
2530487
2530740
2531436
2531436
2531677
2532363
2532363
2533203
2533203
2533471
2534047
2534047
2534882
2534882
2535704
2535704
2535951
2536587
2536587
2536832
2537535
2537535
2538483
2538483
2538735
2539471
2539471
2539723
2540477
2540477
2540727
2541491
2541491
2541737
2542515
2542515
2542767
2543550
2543550
2543801
2544596
2544596
2544852
2545649
2545649
2545902
2546707
2546707
2546959
2547742
2547742
2548000
2548771
2548771
2549050
2549792
2549792
2550799
2550809
2550809
2551772
2551772
2552026
2552739
2552739
2552987
2553725
2553725
2553977
2554729
2554729
2555000
2555741
2555741
2556649
2556649
2556905
2557575
2557575
2557828
2558539
2558539
2559515
2559515
2559758
2560510
2560510
2560763
2561489
2561489
2561735
2562421
2562421
2563380
2563380
2563634
2564333
2564333
2564586
2565303
2565303
2565554
2566220
2566220
2567180
2567180
2567432
2568172
2568172
2568426
2569183
2569183
2569432
2570133
2570133
2571096
2571096
2571100
2572043
2572043
2572293
2572921
2572921
2573832
2573832
2574085
2574780
2574780
2575649
2575653
2575653
2576538
2576538
2576789
2577456
2577456
2578401
2578647
2578647
2579312
2579312
2580199
2580208
2580208
2581057
2581057
2581938
2581938
2582188
2582824
2582824
2583699
2583702
2583702
2584521
2584521
2585364
2585364
2585622
2586232
2586232
2587167
2587167
2587419
2588111
2588111
2588364
2589004
2589004
2589951
2589951
2590201
2590921
2590921
2591174
2591918
2591918
2592168
2592870
2592870
2593849
2593858
2593858
2594848
2594848
2595105
2595849
2595849
2596104
2596801
2596801
2597058
2597782
2597782
2598050
2598786
2598786
2599799
2599806
2599806
2600786
2600786
2601039
2601781
2601781
2602037
2602842
2602842
2603099
2603898
2603898
2604149
2604874
2604874
2605131
2605873
2605873
2606134
2606860
2606860
2607785
2607785
2608036
2608764
2608764
2609015
2609768
2609768
2610014
2610777
2610777
2611034
2611776
2611776
2612717
2612717
2612969
2613718
2613718
2613974
2614736
2614736
2614995
2615748
2615748
2616000
2616677
2616677
2617648
2617648
2617650
2618640
2618640
2618895
2619633
2619633
2619891
2620570
2620570
2621481
2621481
2621736
2622434
2622434
2622687
2623413
2623413
2623670
2624395
2624395
2625302
2625302
2625557
2626260
2626260
2626518
2627195
2627195
2628117
2628117
2628355
2629009
2629009
2629264
2629921
2629921
2630845
2630845
2631102
2631750
2631750
2632699
2632700
2632700
2633641
2633641
2633898
2634545
2634545
2635452
2635452
2635708
2636412
2636412
2636664
2637394
2637394
2637646
2638339
2638339
2639305
2639305
2639561
2640294
2640294
2640554
2641305
2641305
2641562
2642268
2642268
2642524
2643278
2643278
2643550
2644307
2644307
2644600
2645360
2645360
2645650
2646370
2646370
2647399
2647406
2647406
2648449
2648454
2648454
2649486
2649486
2649747
2650499
2650499
2650757
2651539
2651539
2651799
2652570
2652570
2652830
2653570
2653570
2653828
2654536
2654536
2654790
2655528
2655528
2655800
2656536
2656536
2657518
2657518
2657776
2658466
2658466
2658723
2659451
2659451
2659705
2660462
2660462
2660718
2661431
2661431
2662404
2662404
2662659
2663400
2663400
2663654
2664384
2664384
2664642
2665319
2665319
2666286
2666286
2666538
2667264
2667264
2667522
2668206
2668206
2668464
2669121
2669121
2670080
2670080
2670322
2671074
2671074
2671333
2672053
2672053
2672312
2673005
2673005
2673993
2673993
2674000
2674964
2674964
2675216
2675883
2675883
2676141
2676818
2676818
2677721
2677721
2677985
2678586
2678586
2679381
2679870
2679870
2679950
2680818
2680818
2681291
2681904
2681904
2682715
2682715
2682751
2683747
2684087
2684087
2684464
2684500
2685180
2685200
2686139
2686139
2686861
2687254
2687254
2687853
2687853
2688052
2689049
2689050
2689050
2690032
2690032
2690536
2690536
2691295
2691295
2691627
2692294
2692792
2692792
2693549
2693549
2694299
2694300
2694300
2695051
2695051
2696049
2696057
2696559
2696559
2697327
2697327
2698133
2698133
2698367
2698961
2698961
2699232
2699798
2700030
2700641
2700641
2701451
2701451
2701965
2702003
2703049
2703057
2703561
2703561
2704134
2704134
2705031
2705031
2705681
2705681
2706498
2706498
2706554
2707582
2707582
2708290
2708354
2708354
2709039
2709039
2709900
2709900
2710441
2710441
2711216
2711216
2711980
2711980
2712736
2712736
2713483
2713725
2714238
2714238
2714479
2715003
2715003
2715768
2715768
2716530
2716530
2717297
2717297
2718074
2718074
2718327
2718850
2718850
2719849
2719851
2719851
2720620
2721110
2721110
2721313
2722299
2722401
2722401
2723072
2723072
2723863
2723863
2724556
2724556
2725347
2725347
2725851
2725851
2726427
2726924
2726924
2727658
2727658
2728388
2728388
2729107
2729107
2729847
2729847
2730115
2731049
2731071
2731071
2732011
2732279
2732279
2733149
2733197
2733197
2733602
2734116
2734347
2734846
2735599
2735599
2735600
2736357
2736357
2737154
2737154
2737965
2737965
2738212
2738770
2738770
2739603
2739603
2740447
2740447
2740700
2741303
2741303
2742117
2742117
2742930
2742930
2743175
2743999
2744002
2744663
2744663
2744921
2745565
2745565
2746449
2746464
2746464
2747380
2747380
2747613
2748296
2748296
2749150
2749150
2749405
2749988
2749988
2750845
2750845
2751086
2751747
2751747
2752504
2753045
2753045
2753686
2753686
2754499
2754565
2754565
2755125
2755899
2756053
2756053
2756250
2757142
2757142
2757999
2758235
2758235
2759036
2759036
2759050
2759534
2760119
2760548
2761149
2761279
2761279
2762011
2762501
2762501
2762565
2763225
2763944
2763944
2763950
2764670
2764670
2765430
2765430
2766245
2766245
2767061
2767061
2767292
2767880
2767880
2768750
2768750
2768993
2769675
2769675
2769915
2770625
2770625
2771487
2771487
2772344
2772344
2772350
2773244
2773244
2773497
2774164
2774164
2775085
2775085
2775325
2775999
2775999
2776886
2776886
2777126
2777799
2777799
2778038
2778743
2778743
2779699
2779706
2779706
2780657
2780657
2780897
2781573
2781573
2782496
2782496
2782500
2783426
2783426
2783673
2784365
2784365
2785258
2785258
2785508
2786136
2786136
2787033
2787033
2787272
2787945
2787945
2788798
2788798
2788800
2789662
2789662
2790520
2790520
2790758
2791307
2791307
2792086
2792086
2792889
2792889
2793131
2793742
2793742
2794667
2794667
2794914
2795557
2795557
2796416
2796416
2796658
2797280
2797280
2798148
2798148
2798398
2799006
2799006
2799830
2799830
2800641
2800641
2800874
2801465
2801465
2802332
2802332
2802566
2803238
2803238
2804129
2804129
2804376
2805059
2805059
2805303
2805976
2805976
2806846
2806846
2807095
2807745
2807745
2808675
2808675
2808917
2809573
2809573
2810441
2810441
2810682
2811356
2811356
2811611
2812288
2812288
2813239
2813239
2813486
2814133
2814133
2815015
2815015
2815258
2815903
2815903
2816799
2816806
2816806
2817675
2817675
2818546
2818546
2818550
2819465
2819465
2819708
2820420
2820420
2821332
2821332
2821579
2822236
2822236
2822484
2823173
2823173
2824127
2824127
2824375
2825038
2825038
2825290
2826220
2826220
2826880
2826880
2827122
2827719
2827719
2828563
2828563
2828804
2829465
2829465
2830425
2830425
2830666
2831384
2831384
2831629
2832549
2832655
2832655
2833248
2833250
2834112
2834112
2834999
2835003
2835003
2835953
2835953
2836200
2836932
2836932
2837179
2837858
2837858
2838781
2838781
2839027
2839752
2839752
2839998
2840757
2840757
2841006
2841722
2841722
2842000
2842726
2842726
2843645
2843772
2843772
2844799
2844801
2844801
2845768
2845768
2846012
2846781
2846781
2847033
2847845
2847845
2848096
2848865
2848865
2849112
2849899
2849899
2850151
2850958
2850958
2851211
2852017
2852017
2852268
2853022
2853022
2853272
2854054
2854054
2854303
2855096
2855096
2855348
2856090
2856090
2857049
2857053
2857053
2858064
2858064
2858315
2859102
2859102
2859355
2860115
2860115
2860365
2861101
2861101
2861356
2862110
2862110
2862362
2863134
2863134
2863385
2864143
2864143
2865099
2865101
2865101
2866089
2866089
2866341
2867084
2867084
2867336
2868025
2868025
2868949
2868952
2868952
2869923
2869923
2870174
2870946
2870946
2871200
2871910
2871910
2872162
2872884
2872884
2873150
2873886
2873886
2874899
2874910
2874910
2875885
2875885
2876135
2876876
2876876
2877132
2877877
2877877
2878131
2878846
2878846
2879777
2879777
2880032
2880734
2880734
2880989
2881729
2881729
2881983
2882688
2882688
2883606
2883606
2883858
2884538
2884538
2884796
2885496
2885496
2885754
2886487
2886487
2887471
2887471
2887730
2888449
2888449
2888700
2889402
2889402
2890299
2890312
2890312
2891150
2891150
2891960
2891960
2892211
2892780
2892780
2893642
2893642
2893889
2894564
2894564
2895499
2895499
2895749
2896365
2896365
2897180
2897180
2897999
2898006
2898006
2898877
2898877
2899129
2899840
2899840
2900764
2900764
2901009
2901763
2901763
2902013
2902792
2902792
2903044
2903821
2903821
2904077
2904823
2904823
2905068
2905999
2905999
2906686
2906686
2906942
2907509
2907509
2908346
2908346
2908599
2909241
2909241
2910214
2910214
2910465
2911180
2911180
2911432
2912113
2912113
2912367
2913075
2913075
2914073
2914073
2914322
2915089
2915089
2915344
2916058
2916058
2916313
2917071
2917071
2917323
2918119
2918119
2918369
2919166
2919166
2919421
2920126
2920126
2921091
2921091
2921100
2922102
2922102
2922361
2923132
2923132
2923385
2924107
2924107
2924361
2925065
2925065
2925319
2926055
2926055
2926350
2927070
2927070
2928072
2928072
2928329
2929023
2929023
2929279
2930019
2930019
2930273
2931049
2931049
2931302
2932068
2932068
2932326
2933072
2933072
2934048
2934048
2934050
2934996
2934996
2935453
2935952
2935952
2936687
2936890
2936890
2937248
2937562
2937933
2938747
2938747
2939008
2939680
2939680
2940587
2940587
2940832
2941465
2941465
2942360
2942360
2942617
2943266
2943266
2944199
2944203
2944203
2945097
2945349
2945349
2946005
2946005
2946979
2946979
2947224
2948006
2948006
2948265
2949063
2949063
2949317
2950054
2950054
2950310
2951045
2951045
2951298
2952074
2952074
2952327
2953105
2953105
2953360
2954129
2954129
2954383
2955152
2955152
2955409
2956186
2956186
2956450
2957251
2957251
2957507
2958274
2958274
2958550
2959285
2959285
2960241
2960354
2960354
2960650
2961392
2961392
2962373
2962373
2962632
2963388
2963388
2963641
2964421
2964421
2964681
2965444
2965444
2965702
2966421
2966421
2966673
2967440
2967440
2967697
2968478
2968478
2968735
2969539
2969539
2969792
2970529
2970529
2970800
2971528
2971528
2972476
2972587
2972587
2973592
2973592
2973600
2974550
2974550
2974802
2975538
2975538
2975793
2976547
2976547
2976806
2977512
2977512
2978468
2978468
2978722
2979478
2979478
2979730
2980479
2980479
2980737
2981423
2981423
2981677
2982364
2982364
2983330
2983330
2983587
2984279
2984279
2984529
2985188
2985188
2986098
2986098
2986355
2987059
2987059
2987318
2988067
2988067
2988328
2989081
2989081
2990049
2990061
2990061
2991075
2991075
2991330
2992093
2992093
2992352
2993089
2993089
2993347
2994060
2994060
2994321
2995054
2995054
2995311
2996059
2996059
2997048
2997048
2997050
2998026
2998026
2998278
2999040
2999040
2999296
3000064
3000064
3000319
3001062
3001062
3001320
3002064
3002064
3002320
3003086
3003086
3003351
3004140
3004140
3004403
3005138
3005138
3006113
3006113
3006366
3007141
3007141
3007396
3008163
3008163
3008423
3009100
3009100
3009352
3010041
3010041
3011021
3011021
3011278
3012019
3012019
3012274
3012976
3012976
3013236
3013962
3013962
3014221
3015016
3015016
3015275
3016062
3016062
3016321
3017035
3017035
3017998
3017998
3018256
3018993
3018993
3019249
3019964
3019964
3020221
3020893
3020893
3021871
3021871
3022131
3022870
3022870
3023128
3023820
3023820
3024076
3024772
3024772
3025050
3025774
3025774
3026713
3026825
3026825
3027817
3027817
3028069
3028801
3028801
3029060
3029833
3029833
3030087
3030830
3030830
3031084
3031775
3031775
3032749
3032760
3032760
3033779
3033779
3034038
3034774
3034774
3035032
3035736
3035736
3035993
3036760
3036760
3037018
3037852
3037852
3038112
3038870
3038870
3039130
3039839
3039839
3040100
3040860
3040860
3041150
3041880
3041880
3042847
3042847
3043105
3043813
3043813
3044072
3044839
3044839
3045087
3045881
3045881
3046145
3046847
3046847
3047104
3047827
3047827
3048823
3048823
3049084
3049771
3049771
3050026
3050734
3050734
3050992
3051732
3051732
3052000
3052742
3052742
3053699
3053699
3053953
3054682
3054682
3054937
3055707
3055707
3055965
3056716
3056716
3056973
3057673
3057673
3057950
3058665
3058665
3059626
3059732
3059732
3060727
3060727
3060983
3061688
3061688
3061941
3062701
3062701
3062960
3063732
3063732
3063987
3064671
3064671
3065635
3065635
3065891
3066620
3066620
3066879
3067562
3067562
3068420
3068420
3068664
3069273
3069273
3070120
3070120
3070371
3070974
3070974
3071813
3071813
3072621
3072621
3072880
3073425
3073425
3074259
3074259
3074514
3075157
3075157
3076098
3076098
3076352
3076986
3076986
3077876
3077876
3078134
3078790
3078790
3079050
3079732
3079732
3080679
3080679
3080929
3081591
3081591
3081850
3082515
3082515
3083469
3083469
3083728
3084452
3084452
3084711
3085427
3085427
3085685
3086358
3086358
3087289
3087289
3087548
3088200
3088200
3089092
3089092
3089100
3089926
3089926
3090767
3090767
3091005
3091606
3091606
3092449
3092449
3093281
3093281
3093543
3094133
3094133
3095019
3095019
3095271
3095914
3095914
3096760
3096760
3097018
3097570
3097570
3098412
3098412
3098662
3099290
3099290
3100220
3100220
3100470
3101140
3101140
3102045
3102045
3102050
3102983
3102983
3103238
3103946
3103946
3104204
3104873
3104873
3105781
3105781
3106035
3106749
3106749
3107005
3107736
3107736
3108699
3108712
3108712
3109633
3109633
3109887
3110557
3110557
3111491
3111491
3111737
3112406
3112406
3112652
3113267
3113267
3114121
3114121
3114999
3115003
3115003
3115939
3115939
3116200
3116891
3116891
3117153
3117816
3117816
3118761
3118761
3119005
3119699
3119699
3119950
3120637
3120637
3121546
3121546
3121786
3122391
3122391
3123273
3123273
3123537
3124293
3124293
3124551
3125270
3125270
3125530
3126308
3126308
3126558
3127366
3127366
3127609
3128357
3128357
3129339
3129339
3129584
3130330
3130330
3130591
3131315
3131315
3131578
3132329
3132329
3132569
3133333
3133333
3133583
3134334
3134334
3134600
3135337
3135337
3136336
3136336
3136594
3137266
3137266
3137524
3138185
3138185
3139101
3139101
3139338
3140054
3140054
3140305
3140976
3140976
3141949
3141951
3141951
3142951
3142951
3143212
3143958
3143958
3144216
3144935
3144935
3145177
3145939
3145939
3146178
3146955
3146955
3147210
3147939
3147939
3148926
3148926
3149188
3149929
3149929
3150183
3150802
3150802
3151692
3151692
3151931
3152607
3152607
3153499
3153509
3153509
3154399
3154399
3154659
3155347
3155347
3156299
3156307
3156307
3157254
3157254
3157509
3158153
3158153
3159076
3159076
3159327
3160043
3160043
3160297
3161003
3161003
3161884
3161884
3162136
3162675
3162675
3163528
3163528
3163792
3164416
3164416
3165340
3165340
3165582
3166293
3166293
3166548
3167251
3167251
3168199
3168203
3168203
3169151
3169151
3169409
3170081
3170081
3170972
3170972
3171223
3171833
3171833
3172733
3172733
3172991
3173697
3173697
3173940
3174696
3174696
3174944
3175721
3175721
3175984
3176709
3176709
3176957
3177710
3177710
3178699
3178717
3178717
3179719
3179719
3179977
3180692
3180692
3180932
3181660
3181660
3181899
3182590
3182590
3183468
3183468
3183714
3184384
3184384
3185349
3185354
3185354
3186360
3186360
3186610
3187379
3187379
3187633
3188392
3188392
3188643
3189382
3189382
3189629
3190370
3190370
3190614
3191368
3191368
3191650
3192380
3192380
3193399
3193401
3193401
3194333
3194333
3194588
3195287
3195559
3195559
3196474
3196474
3197011
3197461
3197461
3198041
3198041
3198391
3199178
3199676
3199676
3199700
3200160
3200899
3200899
3201629
3202053
3202053
3202605
3202605
3203287
3203287
3204154
3204517
3204517
3204601
3205482
3205482
3205950
3206660
3206660
3207360
3207360
3208062
3208062
3208765
3208765
3209462
3209462
3210184
3210184
3210433
3210942
3210942
3211768
3211768
3212599
3212599
3212857
3213522
3213522
3213781
3214532
3214532
3214797
3215603
3215603
3215867
3216661
3216661
3216923
3217646
3217646
3217902
3218658
3218658
3219649
3219658
3219658
3220595
3220595
3220852
3221475
3221475
3222348
3222348
3222607
3223238
3223238
3224113
3224113
3224373
3224988
3224988
3225903
3225903
3226161
3226792
3226792
3227656
3227656
3227916
3228531
3228531
3229390
3229390
3229639
3230232
3230232
3231108
3231108
3231372
3231982
3231982
3232852
3232852
3233116
3233740
3233740
3234643
3234643
3234892
3235546
3235546
3236440
3236440
3236706
3237298
3237298
3238159
3238159
3238414
3239017
3239017
3239880
3239880
3240123
3240725
3240725
3241528
3241528
3242350
3242350
3242601
3243215
3243215
3244068
3244068
3244320
3244945
3244945
3245856
3245856
3246110
3246785
3246785
3247041
3247685
3247685
3248588
3248588
3248838
3249521
3249521
3250430
3250430
3250679
3251383
3251383
3251633
3252318
3252318
3253249
3253250
3253250
3254165
3254165
3254408
3255046
3255046
3255894
3255894
3256741
3256741
3256997
3257610
3257610
3258499
3258506
3258506
3259406
3259406
3259653
3260310
3260310
3261235
3261235
3261923
3262138
3262138
3263008
3263240
3263240
3263879
3264124
3264719
3264719
3264975
3265667
3265667
3266449
3266449
3266885
3267590
3267949
3267957
3268559
3268559
3269082
3269531
3269531
3269923
3270726
3270835
3270835
3271753
3271753
3271800
3272268
3273060
3273060
3273863
3274075
3274599
3274687
3275047
3275047
3275774
3276086
3276086
3276943
3276943
3277606
3277606
3277945
3278645
3279030
3279030
3279150
3279623
3280170
3280689
3281247
3281247
3281251
3282274
3282274
3282761
3282761
3283603
3283603
3283843
3284442
3284442
3285301
3285301
3285546
3286168
3286168
3287041
3287041
3287291
3287926
3287926
3288808
3288808
3289059
3289671
3289671
3290543
3290543
3290794
3291432
3291432
3292347
3292347
3292599
3293262
3293262
3294190
3294190
3294438
3295111
3295111
3295364
3296025
3296025
3296923
3296923
3297172
3297796
3297796
3298643
3298643
3299449
3299457
3299457
3299919
3300277
3301111
3301111
3301363
3301948
3301948
3302786
3302786
3303037
3303678
3303678
3304603
3304603
3304853
3305568
3305568
3305814
3306521
3306521
3307452
3307452
3307705
3308392
3308392
3308639
3309341
3309341
3310283
3310283
3310501
3311205
3311205
3311871
3312133
3312133
3313055
3313055
3313305
3313949
3313949
3314202
3314903
3314903
3315200
3315942
3315942
3316752
3316993
3316993
3317974
3317974
3318225
3318978
3318978
3319207
3319981
3319981
3320236
3320933
3320933
3321181
3321864
3321864
3322828
3322828
3323080
3323846
3323846
3324095
3324884
3324884
3325134
3325927
3325927
3326179
3326973
3326973
3327228
3327990
3327990
3328242
3329019
3329019
3329270
3330018
3330018
3330271
3331049
3331049
3331302
3332082
3332082
3332350
3333103
3333103
3334006
3334131
3334131
3335149
3335160
3335160
3336193
3336193
3336200
3337200
3337200
3337454
3338201
3338201
3338453
3339221
3339221
3339472
3340261
3340261
3340514
3341320
3341320
3341569
3342350
3342350
3342601
3343314
3343314
3344238
3344238
3344250
3345173
3345173
3345422
3346153
3346153
3346407
3347170
3347170
3347420
3348191
3348191
3349148
3349148
3349150
3350139
3350139
3350393
3351151
3351151
3351402
3352179
3352179
3352434
3353137
3353137
3353390
3354128
3354128
3354400
3355144
3355144
3356060
3356189
3356189
3357111
3357240
3357240
3358159
3358282
3358282
3359299
3359305
3359305
3360278
3360278
3360533
3361171
3361171
3362079
3362079
3362333
3362992
3362992
3363242
3363942
3363942
3364200
3364917
3364917
3365899
3365899
3366153
3366872
3366872
3367124
3367781
3367781
3368684
3368684
3368937
3369577
3369577
3370442
3370442
3370694
3371344
3371344
3371595
3372328
3372328
3372600
3373394
3373394
3373652
3374414
3374414
3374700
3375452
3375452
3376345
3376476
3376476
3377468
3377468
3377720
3378371
3378371
3379244
3379244
3379250
3380090
3380090
3380969
3380969
3381225
3381879
3381879
3382136
3382837
3382837
3383779
3383779
3384032
3384733
3384733
3384989
3385669
3385669
3386575
3386575
3386831
3387444
3387444
3388312
3388312
3388567
3389184
3389184
3389419
3390117
3390117
3390996
3390996
3391234
3391884
3391884
3392762
3392762
3393015
3393665
3393665
3394614
3394614
3394869
3395573
3395573
3395819
3396525
3396525
3397449
3397449
3397450
3398352
3398352
3398600
3399476
3399476
3400068
3400068
3400884
3400884
3401136
3401700
3401700
3402571
3402571
3402825
3403527
3403527
3404449
3404454
3404454
3405418
3405418
3405667
3406462
3406462
3406713
3407549
3407549
3407807
3408626
3408626
3408878
3409666
3409666
3409929
3410687
3410687
3410948
3411669
3411669
3411928
3412599
3412599
3413502
3413502
3413758
3414400
3414400
3415278
3415278
3415530
3416218
3416218
3416473
3417266
3417266
3417524
3418397
3418397
3418650
3419407
3419534
3419534
3420513
3420640
3420640
3420901
3421712
3421712
3421965
3422740
3422740
3423000
3423728
3423728
3424628
3424628
3424883
3425494
3425494
3426369
3426827
3426827
3426850
3427549
3428237
3428237
3428483
3429179
3429179
3429439
3430055
3430055
3430900
3430900
3431749
3431754
3431754
3432657
3432657
3432905
3433627
3433627
3434515
3434515
3434762
3435386
3435386
3436293
3436293
3436547
3437182
3437182
3438033
3438033
3438285
3438908
3438908
3439154
3439827
3439827
3440745
3440745
3440997
3441642
3441642
3442505
3442505
3442748
3443340
3443340
3444188
3444188
3444438
3445080
3445080
3445931
3445931
3446187
3446846
3446846
3447813
3447813
3448064
3448760
3448760
3449009
3449711
3449711
3449960
3450668
3450668
3451648
3451648
3451901
3452657
3452657
3452904
3453692
3453692
3453944
3454751
3454751
3455002
3455813
3455813
3456064
3456894
3456894
3457145
3457986
3457986
3458243
3459049
3459057
3459057
3460099
3460101
3460101
3461067
3461067
3461321
3461994
3461994
3462891
3462891
3462900
3463794
3463794
3464042
3464724
3464724
3465651
3465651
3465904
3466515
3466515
3467348
3467348
3468149
3468154
3468154
3468964
3468964
3469830
3469830
3470085
3470686
3470686
3471498
3471498
3472305
3472305
3472558
3473119
3473119
3474006
3474006
3474249
3474922
3474922
3475825
3475825
3476078
3476670
3476670
3477500
3477500
3477725
3478353
3478353
3479216
3479216
3479467
3480099
3480099
3481003
3481003
3481255
3481918
3481918
3482170
3482863
3482863
3483808
3483808
3484061
3484780
3484780
3485031
3485756
3485756
3486005
3486726
3486726
3487724
3487724
3487977
3488739
3488739
3488993
3489778
3489778
3490029
3490766
3490766
3491019
3491736
3491736
3491990
3492741
3492741
3493000
3493755
3493755
3494705
3494705
3494959
3495685
3495685
3495942
3496681
3496681
3496934
3497699
3497699
3497952
3498653
3498653
3499574
3499574
3499824
3500528
3500528
3500785
3501502
3501502
3501751
3502515
3502515
3502800
3503517
3503517
3504454
3504454
3504710
3505424
3505424
3505672
3506408
3506408
3506664
3507402
3507402
3508339
3508339
3508590
3509308
3509308
3509557
3510295
3510295
3510546
3511275
3511275
3512183
3512183
3512434
3513052
3513052
3513976
3513976
3514230
3514975
3514975
3515229
3515986
3515986
3516243
3516986
3516986
3517237
3517938
3517938
3518886
3518886
3519141
3519825
3519825
3520080
3520779
3520779
3521037
3521748
3521748
3522680
3522680
3522930
3523633
3523633
3523891
3524633
3524633
3524882
3525649
3525649
3525901
3526637
3526637
3527595
3527595
3527850
3528553
3528553
3528803
3529443
3529443
3530294
3530294
3530545
3531199
3531199
3532177
3532177
3532429
3533125
3533125
3533381
3534108
3534108
3534365
3535106
3535106
3536049
3536057
3536057
3537022
3537022
3537275
3537997
3537997
3538251
3538983
3538983
3539235
3539918
3539918
3540892
3540892
3541155
3541864
3541864
3542120
3542800
3542800
3543687
3543687
3543938
3544565
3544565
3545425
3545425
3545670
3546361
3546361
3546607
3547354
3547354
3548277
3548277
3548527
3549134
3549134
3550029
3550029
3550279
3550947
3550947
3551202
3551856
3551856
3552699
3552699
3553509
3553509
3553770
3554346
3554346
3555212
3555212
3555465
3556095
3556095
3556956
3556956
3557202
3557782
3557782
3558592
3558592
3559423
3559423
3559674
3560285
3560285
3561177
3561177
3561427
3562096
3562096
3562349
3563022
3563022
3563918
3563918
3564169
3564810
3564810
3565759
3565759
3566006
3566736
3566736
3566984
3567686
3567686
3567938
3568655
3568655
3569649
3569666
3569666
3570699
3570703
3570703
3571749
3571760
3571760
3572788
3572788
3573041
3573785
3573785
3574040
3574792
3574792
3575050
3575796
3575796
3576047
3576789
3576789
3577699
3577704
3577704
3578589
3578589
3578839
3579485
3579485
3580472
3580472
3580721
3581478
3581478
3581733
3582486
3582486
3582742
3583445
3583445
3583695
3584420
3584420
3585399
3585400
3585400
3586376
3586376
3586629
3587266
3587266
3588146
3588146
3588387
3589059
3589059
3589949
3589955
3589955
3590885
3590885
3591130
3591870
3591870
3592114
3592854
3592854
3593105
3593821
3593821
3594801
3594801
3595051
3595819
3595819
3596072
3596869
3596869
3597114
3597863
3597863
3598123
3598874
3598874
3599130
3599923
3599923
3600170
3600988
3600988
3601244
3602027
3602027
3602288
3603058
3603058
3603307
3604068
3604068
3604331
3605059
3605059
3605980
3605980
3606234
3606870
3606870
3607120
3607816
3607816
3608826
3608826
3609074
3609810
3609810
3610061
3610778
3610778
3611024
3611770
3611770
3612028
3612786
3612786
3613749
3613753
3613753
3614726
3614726
3614983
3615724
3615724
3615979
3616732
3616732
3616988
3617700
3617700
3617954
3618696
3618696
3619593
3619722
3619722
3620749
3620753
3620753
3621726
3621726
3621981
3622728
3622728
3622987
3623720
3623720
3623976
3624660
3624660
3625575
3625575
3626185
3626525
3626525
3626789
3627439
3627439
3628320
3628320
3628576
3629244
3629244
3629502
3630229
3630229
3631205
3631205
3631460
3632123
3632123
3632382
3633050
3633050
3633970
3633970
3634218
3634856
3634856
3635752
3635752
3636006
3636673
3636673
3636928
3637639
3637639
3638576
3638576
3638832
3639491
3639491
3639746
3640457
3640457
3640709
3641463
3641463
3641750
3642488
3642488
3643451
3643451
3643700
3644415
3644415
3644666
3645397
3645397
3645656
3646387
3646387
3647334
3647334
3647591
3648182
3648182
3648979
3648979
3649237
3649830
3649830
3650737
3650737
3650989
3651661
3651661
3652592
3652592
3652600
3653485
3653485
3653731
3654371
3654371
3655278
3655278
3655524
3656176
3656176
3657049
3657049
3657302
3657877
3657877
3658708
3658708
3659566
3659566
3659823
3660452
3660452
3661349
3661355
3661355
3662268
3662268
3662520
3663166
3663166
3664069
3664069
3664319
3664973
3664973
3665886
3665886
3666140
3666809
3666809
3667063
3667742
3667742
3668655
3668655
3668903
3669602
3669602
3669846
3670579
3670579
3670833
3671575
3671575
3671850
3672578
3672578
3673543
3673543
3673796
3674519
3674519
3674774
3675490
3675490
3675740
3676425
3676425
3677371
3677371
3677617
3678332
3678332
3678586
3679269
3679269
3680216
3680216
3680457
3681162
3681162
3681414
3682103
3682103
3683002
3683002
3683265
3683920
3683920
3684169
3684887
3684887
3685795
3685795
3686038
3686710
3686710
3686962
3687664
3687664
3688640
3688640
3688895
3689606
3689606
3689861
3690529
3690529
3690777
3691463
3691463
3692365
3692365
3692616
3693221
3693221
3694079
3694079
3694932
3694932
3695185
3695757
3695757
3696569
3696569
3696806
3697423
3697423
3698300
3698300
3698556
3699188
3699188
3700089
3700089
3700343
3700966
3700966
3701804
3701804
3702606
3702606
3702856
3703422
3703422
3704252
3704252
3705088
3705088
3705340
3705924
3705924
3706793
3706793
3707039
3707713
3707713
3707966
3708653
3708653
3709566
3709566
3709815
3710523
3710523
3710774
3711503
3711503
3711752
3712506
3712506
3713478
3713478
3713724
3714466
3714466
3714718
3715470
3715470
3715722
3716464
3716464
3716713
3717399
3717399
3718372
3718372
3718625
3719357
3719357
3719603
3720294
3720294
3720543
3721219
3721219
3722071
3722071
3722920
3722920
3723171
3723803
3723803
3724699
3724708
3724708
3725617
3725617
3725869
3726496
3726496
3727317
3727317
3728116
3728116
3728895
3728895
3728900
3729662
3729662
3730436
3730436
3731256
3731256
3731474
3732132
3732132
3733052
3733279
3733279
3733970
3733970
3734224
3734889
3734889
3735789
3735789
3736042
3736636
3736636
3737483
3737483
3738336
3738336
3738586
3739168
3739168
3740012
3740012
3740264
3740875
3740875
3741771
3741771
3742022
3742635
3742635
3743548
3743548
3743792
3744497
3744497
3744748
3745451
3745451
3746378
3746378
3746628
3747317
3747317
3747566
3748276
3748276
3748525
3749261
3749261
3750249
3750257
3750257
3751211
3751211
3751457
3752199
3752199
3752444
3753197
3753197
3753451
3754192
3754192
3755137
3755137
3755383
3756118
3756118
3756369
3757123
3757123
3757371
3758109
3758109
3758360
3759055
3759055
3760034
3760034
3760281
3761019
3761019
3761274
3761966
3761966
3762213
3762943
3762943
3763200
3763926
3763926
3764854
3764854
3765104
3765796
3765796
3766047
3766769
3766769
3767745
3767745
3767750
3768648
3768648
3768918
3769570
3769570
3770548
3770548
3770550
3771522
3771522
3771768
3772448
3772448
3772692
3773377
3773377
3774322
3774322
3774567
3775239
3775239
3776118
3776118
3776365
3777036
3777036
3777285
3777967
3777967
3778877
3778877
3779120
3779779
3779779
3780026
3780743
3780743
3781747
3781747
3781750
3782716
3782716
3782971
3783636
3783636
3783878
3784560
3784560
3785457
3785457
3785695
3786312
3786312
3787157
3787157
3788039
3788039
3788276
3788948
3788948
3789194
3789877
3789877
3790829
3790829
3791086
3791741
3791741
3791991
3792667
3792667
3793646
3793646
3793650
3794652
3794652
3794902
3795651
3795651
3795898
3796605
3796605
3796863
3797590
3797590
3797850
3798591
3798591
3799599
3799599
3799600
3800562
3800562
3800805
3801549
3801549
3801801
3802550
3802550
3802800
3803568
3803568
3803817
3804552
3804552
3805549
3805559
3805559
3806571
3806571
3806824
3807562
3807562
3807810
3808524
3808524
3808776
3809502
3809502
3809754
3810476
3810476
3811413
3811413
3811657
3812388
3812388
3812641
3813368
3813368
3814291
3814291
3814540
3815253
3815253
3815506
3816223
3816223
3816484
3817158
3817158
3818060
3818060
3818301
3818999
3818999
3819252
3819971
3819971
3820883
3820883
3821139
3821816
3821816
3822064
3822713
3822713
3823583
3823583
3823839
3824485
3824485
3825409
3825409
3825666
3826305
3826305
3827191
3827191
3827449
3828105
3828105
3828351
3829049
3829049
3829949
3829949
3830199
3830866
3830866
3831115
3832079
3832079
3832803
3832803
3833057
3833740
3833740
3833986
3834722
3834722
3834983
3835693
3835693
3836643
3836643
3836894
3837556
3837556
3837804
3838522
3838522
3839491
3839491
3839749
3840438
3840438
3840686
3841391
3841391
3842299
3842305
3842305
3843228
3843228
3843477
3844119
3844119
3845036
3845036
3845276
3845977
3845977
3846237
3846928
3846928
3847826
3847826
3848071
3848744
3848744
3848982
3849699
3849699
3850652
3850652
3850906
3851579
3851836
3851836
3852544
3852544
3852801
3853519
3853519
3854503
3854503
3854761
3855464
3855464
3855720
3856441
3856441
3856698
3857423
3857423
3858389
3858389
3858640
3859349
3859349
3859599
3860312
3860312
3860562
3861285
3861285
3862240
3862240
3862494
3863226
3863226
3863478
3864226
3864226
3864480
3865172
3865172
3865424
3866165
3866165
3866450
3867172
3867172
3868112
3868112
3868362
3869050
3869050
3869947
3869947
3869950
3870812
3870812
3871640
3871640
3871895
3872502
3872502
3873420
3873420
3873660
3874385
3874385
3874631
3875314
3875314
3876206
3876206
3876454
3877107
3877107
3877359
3878039
3878039
3878980
3878980
3879234
3879897
3879897
3880799
3880802
3880802
3881748
3881748
3881996
3882730
3882730
3882980
3883719
3883719
3883969
3884669
3884669
3885639
3885639
3885894
3886616
3886616
3886870
3887563
3887563
3888499
3888506
3888506
3889450
3889450
3889703
3890335
3890335
3891195
3891195
3891439
3892119
3892119
3892372
3893070
3893070
3893982
3893982
3894237
3894925
3894925
3895175
3895898
3895898
3896849
3896849
3897101
3897759
3897759
3898012
3898713
3898713
3899699
3899707
3899707
3900683
3900683
3900929
3901610
3901610
3901860
3902576
3902576
3902850
3903583
3903583
3904587
3904587
3904838
3905548
3905548
3905799
3906546
3906546
3906800
3907514
3907514
3908432
3908432
3908680
3909375
3909375
3909626
3910336
3910336
3910591
3911310
3911310
3912227
3912227
3912479
3913166
3913166
3913415
3914123
3914123
3915045
3915045
3915292
3915923
3915923
3916840
3916840
3917096
3917772
3917772
3918014
3918654
3918654
3919549
3919549
3919799
3920460
3920460
3921365
3921365
3921617
3922264
3922264
3922514
3923219
3923219
3924199
3924214
3924214
3925169
3925169
3925424
3926134
3926134
3926387
3927131
3927131
3927381
3928147
3928147
3929099
3929110
3929110
3930106
3930106
3930361
3931108
3931108
3931360
3932089
3932089
3932340
3933041
3933041
3933301
3934024
3934024
3934996
3934996
3935259
3935912
3935912
3936167
3936856
3936856
3937810
3937810
3938065
3938712
3938712
3938967
3939640
3939640
3940615
3940615
3940868
3941618
3941618
3941869
3942576
3942576
3942827
3943487
3943487
3944418
3944418
3944676
3945383
3945383
3945638
3946292
3946292
3947224
3947224
3947464
3948194
3948194
3948443
3949154
3949154
3950065
3950065
3950320
3950992
3950992
3951246
3951922
3951922
3952849
3952849
3953096
3953729
3953729
3954649
3954654
3954654
3955615
3955615
3955866
3956567
3956567
3956815
3957513
3957513
3958499
3958505
3958505
3959503
3959503
3959754
3960415
3960415
3961299
3961303
3961303
3962191
3962191
3962446
3963106
3963106
3963991
3963991
3964239
3964912
3964912
3965166
3965886
3965886
3966846
3966846
3967093
3967775
3967775
3968026
3968721
3968721
3969687
3969687
3969940
3970657
3970657
3970909
3971568
3971568
3972464
3972464
3972720
3973391
3973391
3973638
3974354
3974354
3975285
3975285
3975538
3976179
3976179
3976429
3977109
3977109
3978057
3978057
3978309
3978997
3978997
3979247
3979923
3979923
3980878
3980878
3981134
3981842
3981842
3982093
3982768
3982768
3983016
3983720
3983720
3984680
3984680
3984933
3985585
3985585
3986413
3986413
3986656
3987214
3987214
3988079
3988079
3988949
3988950
3988950
3989815
3989815
3990682
3990682
3990934
3991613
3991613
3991861
3992563
3992563
3993459
3993459
3993712
3994359
3994359
3994605
3995276
3995276
3996218
3996218
3996469
3997161
3997161
3997415
3998120
3998120
3999040
3999040
3999293
3999996
3999996
4000248
4000999
4000999
4001249
4002004
4002004
4002252
4003009
4003009
4003976
4003976
4004220
4004958
4004958
4005210
4005948
4005948
4006196
4006950
4006950
4007190
4007960
4007960
4008214
4008960
4008960
4009869
4010117
4010117
4010765
4010765
4011624
4011624
4011868
4012483
4012483
4013331
4013331
4014149
4014158
4014158
4014994
4014994
4015811
4015811
4016599
4016606
4016606
4017416
4017416
4018236
4018236
4018485
4019061
4019061
4020095
4020095
4020101
4020881
4020881
4021426
4021677
4022261
4022261
4023119
4023119
4023651
4024000
4024000
4024893
4024893
4025124
4025784
4025784
4026627
4026627
4026874
4027484
4027484
4028366
4028366
4028617
4029241
4029241
4030117
4030117
4030367
4030979
4030979
4031853
4031853
4032106
4032730
4032730
4033604
4033604
4034449
4034460
4034460
4035313
4035313
4036171
4036171
4036412
4037014
4037014
4037879
4037879
4038134
4038788
4038788
4039032
4039735
4039735
4040673
4040673
4040922
4041612
4041612
4041863
4042545
4042545
4043473
4043473
4043720
4044366
4044366
4045241
4045241
4045471
4046088
4046088
4046910
4046910
4047698
4047698
4048449
4048450
4048450
4049213
4049213
4049996
4049996
4050833
4050833
4051075
4051772
4051772
4052028
4052765
4052765
4053023
4053789
4053789
4054050
4054784
4054784
4055796
4055796
4055800
4056800
4056800
4057055
4057785
4057785
4058029
4058716
4058716
4059638
4059638
4059897
4060526
4060526
4061399
4061402
4061402
4062292
4062292
4062546
4063212
4063212
4064144
4064144
4064392
4065018
4065018
4065942
4065942
4065950
4066896
4066896
4067154
4067872
4067872
4068127
4068845
4068845
4069781
4069781
4070042
4070745
4070745
4071001
4071723
4071723
4071980
4072653
4072653
4073610
4073610
4073864
4074557
4074557
4074810
4075506
4075506
4076449
4076452
4076452
4077387
4077387
4077640
4078273
4078273
4079172
4079172
4079428
4080057
4080057
4080946
4080946
4081183
4081783
4081783
4082628
4082628
4082883
4083503
4083503
4083887
4084590
4084590
4085246
4085246
4086151
4086151
4086400
4087072
4087072
4087990
4087990
4088000
4088838
4088838
4089676
4089676
4089918
4090508
4090508
4091307
4091307
4092124
4092124
4092371
4092995
4092995
4093933
4093933
4094178
4094882
4094882
4095126
4095841
4095841
4096084
4096800
4096800
4097736
4097736
4097981
4098658
4098658
4098908
4099568
4100228
4100518
4100518
4100600
4101281
4101539
4102068
4102068
4102872
4102872
4103713
4103713
4103963
4104650
4104650
4104893
4105600
4105600
4106549
4106822
4106912
4106912
4107738
4107738
4108332
4108332
4109190
4109190
4110033
4110033
4110271
4110875
4110875
4111128
4111953
4112465
4112465
4112532
4113385
4113385
4114230
4114230
4114481
4115082
4115082
4115907
4115907
4116153
4116720
4116720
4117612
4117612
4117863
4118567
4118567
4118811
4119536
4119536
4120512
4120512
4120754
4121486
4121486
4121736
4122454
4122454
4122704
4123395
4123395
4124359
4124359
4124611
4125340
4125340
4125589
4126328
4126328
4126578
4127325
4127325
4127576
4128320
4128320
4129260
4129260
4129513
4130196
4130196
4130444
4131158
4131158
4131407
4132171
4132171
4132450
4133221
4133221
4133500
4134288
4134288
4134550
4135330
4135330
4135601
4136356
4136356
4137349
4137349
4137350
4138276
4138276
4138527
4139217
4139217
4140149
4140159
4140159
4141130
4141130
4141382
4142083
4142083
4142328
4143024
4143024
4143995
4143995
4144000
4145004
4145004
4145262
4146030
4146030
4146281
4147012
4147012
4147264
4148021
4148021
4148261
4149056
4149056
4149301
4150099
4150099
4150349
4151095
4151095
4151351
4152124
4152124
4153022
4153412
4153412
4153450
4154114
4154366
4155031
4155031
4155270
4155923
4155923
4156786
4156786
4157630
4157630
4157879
4158496
4158496
4159399
4159410
4159410
4160369
4160369
4160614
4161258
4161258
4162175
4162175
4162424
4163128
4163128
4163380
4164075
4164075
4164960
4164960
4165205
4166049
4166076
4166076
4166602
4167404
4167404
4168149
4168161
4168161
4168822
4168925
4169667
4169667
4170599
4170623
4170623
4171123
4171999
4172096
4172096
4172804
4172804
4173282
4173997
4173997
4174304
4174710
4175407
4175407
4175652
4176537
4176537
4176550
4177328
4177328
4178131
4178131
4178798
4178798
4179475
4179475
4179739
4180164
4180870
4180870
4181592
4181592
4182351
4182582
4182582
4183160
4183416
4184037
4184037
4184943
4184943
4184950
4185825
4185825
4186082
4186733
4186733
4187663
4187663
4187917
4188602
4188602
4188852
4189522
4189522
4190391
4190391
4191192
4191192
4191450
4191972
4191972
4192985
4192985
4193000
4193501
4194297
4194297
4194543
4195131
4195131
4195981
4195981
4196849
4196851
4196851
4197710
4197710
4198536
4198536
4199215
4199347
4199347
4200123
4200123
4200893
4200893
4201680
4201935
4201935
4202496
4202496
4203427
4203427
4203667
4204353
4204353
4204610
4205282
4205282
4206172
4206172
4206419
4207025
4207025
4207878
4207878
4208734
4208734
4208978
4209610
4209610
4209853
4210525
4210525
4211436
4211436
4211678
4212560
4212560
4213166
4213166
4213983
4213983
4214000
4214817
4214817
4215658
4215658
4215908
4216726
4216726
4217324
4217324
4217559
4218214
4218214
4219120
4219120
4219350
4219982
4219982
4220820
4220820
4221683
4221683
4221929
4222604
4222604
4222851
4223575
4223575
4223833
4224587
4224587
4224851
4225560
4225560
4226464
4226464
4226665
4227380
4227380
4228299
4228299
4228560
4229246
4229246
4229487
4230200
4230200
4231147
4231147
4231150
4232043
4232043
4232287
4232946
4232946
4233874
4233874
4234124
4234805
4234805
4235696
4235696
4235700
4236535
4236535
4237390
4237390
4237636
4238282
4238282
4239173
4239173
4239408
4240083
4240083
4240333
4241017
4241017
4241913
4241913
4242151
4242813
4242813
4243711
4243711
4243958
4244619
4244619
4244867
4245543
4245543
4246451
4246451
4247073
4247585
4247585
4248229
4248229
4248932
4249116
4249116
4249970
4249970
4250079
4250784
4250784
4251620
4251620
4251857
4252527
4252527
4253514
4253514
4253764
4254541
4254541
4254773
4255506
4255506
4255766
4256481
4256481
4256719
4257450
4257450
4258410
4258410
4258657
4259320
4259320
4259575
4260256
4260256
4261217
4261217
4261454
4262198
4262198
4262447
4263080
4263080
4264020
4264020
4264261
4264950
4264950
4265177
4265880
4265880
4266814
4266814
4267063
4267731
4267731
4267973
4268634
4268634
4269553
4269553
4269799
4270500
4270500
4270758
4271470
4271470
4272400
4272400
4272647
4273358
4273358
4273608
4274348
4274348
4274596
4275341
4275341
4275601
4276541
4276541
4277232
4277232
4277480
4278158
4278158
4279048
4279048
4279293
4279932
4279932
4280180
4280866
4280866
4281838
4281838
4282084
4282836
4283078
4283078
4283771
4283771
4284699
4284716
4284716
4285632
4285632
4285884
4286511
4286511
4287420
4287420
4287670
4288315
4288315
4289219
4289219
4289480
4290085
4290085
4290929
4290929
4291171
4291811
4291811
4292681
4292681
4292925
4293628
4293628
4293876
4294594
4294594
4294852
4295595
4295595
4296599
4296610
4296610
4297599
4297599
4297849
4298527
4298527
4298775
4299478
4299478
4300449
4300449
4300450
4301411
4301411
4301671
4302339
4302339
4302590
4303302
4303302
4304246
4304246
4304496
4305191
4305191
4305444
4306152
4306152
4306400
4307141
4307141
4308083
4308083
4308329
4309049
4309049
4309300
4310044
4310044
4310304
4311037
4311037
4311938
4311938
4312200
4312884
4312884
4313132
4313868
4313868
4314111
4314874
4314874
4315150
4315882
4315882
4316824
4316824
4317071
4317817
4317817
4318073
4318800
4318800
4319051
4319728
4319728
4320690
4320690
4320949
4321698
4321698
4321952
4322726
4322726
4322984
4323688
4323688
4323933
4324669
4324669
4324950
4325670
4325670
4326663
4326663
4326923
4327584
4327584
4327839
4328565
4328565
4328815
4329555
4329555
4330522
4330522
4330768
4331431
4331431
4331681
4332389
4332389
4332651
4333364
4333364
4334307
4334307
4334560
4335232
4335232
4335484
4336172
4336172
4337129
4337129
4337370
4338062
4338062
4338317
4339035
4339035
4339300
4340034
4340034
4340979
4340979
4341234
4341944
4341944
4342200
4343123
4343123
4343150
4343971
4343971
4344760
4344760
4345438
4345438
4345690
4346406
4346406
4346652
4347643
4347643
4348366
4348366
4348615
4349268
4349268
4350145
4350145
4350150
4351032
4351032
4351290
4351943
4351943
4352858
4352858
4353111
4353739
4353739
4354662
4354662
4354906
4355613
4355613
4355869
4356608
4356608
4356860
4357548
4357548
4358538
4358538
4358796
4359545
4359545
4359797
4360548
4360548
4360810
4361518
4361518
4362399
4362406
4362406
4363315
4363315
4363569
4364229
4364229
4365184
4365184
4365441
4366126
4366126
4366376
4367058
4367058
4367304
4368041
4368041
4369049
4369052
4369052
4370064
4370064
4370314
4371004
4371004
4371253
4371946
4371946
4372899
4372900
4372900
4373883
4373883
4374137
4374859
4374859
4375108
4375754
4375754
4376577
4376577
4377424
4377424
4377679
4378337
4378337
4378596
4379319
4379319
4379567
4380326
4380326
4380600
4381335
4381335
4382346
4382346
4382350
4383332
4383332
4383587
4384297
4384297
4384552
4385285
4385285
4385534
4386270
4386270
4387249
4387251
4387251
4388246
4388246
4388504
4389245
4389245
4389494
4390195
4390195
4390438
4391174
4391174
4392128
4392128
4392370
4393057
4393057
4393897
4393897
4393900
4394813
4394813
4395065
4395795
4395795
4396039
4396774
4396774
4397692
4397692
4397932
4398615
4398615
4398860
4399516
4399516
4400381
4400381
4401249
4401260
4401260
4402176
4402176
4402428
4403129
4403129
4403375
4404096
4404096
4405022
4405022
4405270
4405893
4405893
4406746
4406746
4406992
4407560
4407560
4408409
4408409
4408656
4409338
4409338
4410294
4410294
4410540
4411196
4411196
4411440
4412156
4412156
4413139
4413139
4413384
4414098
4414098
4414353
4415048
4415048
4415301
4416027
4416027
4416999
4417001
4417656
4417656
4417725
4418144
4418795
4419249
4419249
4419690
4419938
4420555
4420555
4421432
4421432
4421682
4422374
4422374
4422620
4423372
4423372
4423650
4424370
4424370
4425352
4425352
4425606
4426362
4426362
4426610
4427379
4427379
4427640
4428318
4428318
4428563
4429294
4429294
4430275
4430275
4430530
4431257
4431257
4431512
4432225
4432225
4432473
4433222
4433222
4433475
4434234
4434234
4435185
4435185
4435439
4436170
4436170
4436421
4437150
4437150
4437407
4438118
4438118
4438998
4438998
4439253
4439904
4439904
4440156
4440837
4440837
4441788
4441788
4442035
4442689
4442689
4442938
4443635
4443635
4444612
4444612
4444869
4445540
4445540
4445790
4446483
4446483
4447449
4447452
4447452
4448402
4448402
4448652
4449329
4449329
4449583
4450263
4450263
4451179
4451179
4451422
4452053
4452053
4452981
4452981
4453236
4453935
4453935
4454189
4454916
4454916
4455834
4455834
4456083
4456768
4456768
4457016
4457716
4457716
4457968
4458677
4458677
4459592
4459592
4459843
4460540
4460540
4460796
4461483
4461483
4462396
4462396
4462646
4463285
4463285
4464224
4464224
4464477
4465227
4465227
4465490
4466235
4466235
4466479
4467206
4467206
4467447
4468188
4468188
4468451
4469167
4469167
4470079
4470079
4470335
4470991
4470991
4471923
4471923
4472167
4472847
4472847
4473699
4473700
4473700
4474547
4474547
4475429
4475429
4475686
4476366
4476366
4476620
4477347
4477347
4477598
4478261
4478261
4479210
4479210
4479457
4480183
4480183
4480432
4481139
4481139
4482083
4482083
4482331
4483043
4483043
4483297
4484004
4484004
4484899
4484904
4484904
4485822
4485822
4486070
4486766
4486766
4487684
4487684
4487933
4488533
4488533
4489393
4489393
4489638
4490290
4490290
4490539
4491249
4491249
4492220
4492220
4492466
4493189
4493189
4493435
4494100
4494100
4495036
4495036
4495287
4495985
4495985
4496245
4496909
4496909
4497795
4497795
4498039
4498725
4498725
4498957
4499707
4499707
4499953
4500664
4500664
4501561
4501561
4501806
4502469
4502469
4503375
4503375
4503631
4504236
4504236
4505140
4505140
4505381
4506105
4506105
4506348
4507061
4507061
4507993
4507993
4508000
4508964
4508964
4509213
4509945
4509945
4510186
4510894
4510894
4511834
4511834
4512090
4512807
4512807
4513058
4513774
4513774
4514015
4514702
4514702
4515653
4515653
4515891
4516608
4516608
4516854
4517524
4517524
4518431
4518431
4518676
4519386
4519386
4519625
4520599
4520619
4520619
4521238
4521489
4522138
4522138
4523027
4523027
4523270
4523872
4523872
4524134
4524677
4525491
4525743
4525743
4526296
4526296
4527090
4527090
4527904
4527904
4528160
4528460
4529317
4529317
4529541
4530315
4530315
4531076
4531076
4531131
4531812
4531812
4532529
4532529
4533253
4533253
4533995
4533995
4534949
4535000
4535000
4535527
4536280
4536280
4537049
4537058
4537058
4537852
4537852
4538659
4538659
4539443
4539443
4539699
4540246
4540246
4541125
4541125
4541367
4542080
4542080
4542960
4542960
4543210
4543859
4543859
4544117
4544771
4544771
4545720
4545720
4545983
4546675
4546675
4546908
4547590
4547590
4548483
4548483
4548730
4549400
4549400
4550348
4550348
4550350
4551311
4551311
4551569
4552242
4552242
4552483
4553179
4553179
4554146
4554146
4554397
4555126
4555126
4555384
4556062
4556062
4556301
4557028
4557028
4558031
4558031
4558271
4559031
4559031
4559286
4559977
4559977
4560231
4560966
4560966
4561216
4561988
4561988
4562250
4562980
4562980
4563900
4563900
4564151
4564917
4564917
4565169
4565934
4565934
4566184
4566871
4566871
4567849
4567850
4567850
4568815
4568815
4569066
4569701
4569701
4570566
4570566
4570816
4571475
4571475
4571728
4572456
4572456
4573436
4573436
4573701
4574428
4574428
4574684
4575402
4575402
4575644
4576375
4576375
4577267
4577267
4577520
4578155
4578155
4579049
4579062
4579062
4580022
4580022
4580277
4580993
4580993
4581233
4581920
4581920
4582877
4582877
4583112
4583852
4583852
4584108
4584846
4584846
4585095
4585813
4585813
4586743
4586743
4586750
4587704
4587704
4587950
4588694
4588694
4588949
4589700
4589700
4589943
4590669
4590669
4591647
4591647
4591650
4592622
4592622
4592870
4593538
4593815
4594445
4594445
4594450
4595333
4595333
4595585
4596223
4596223
4597052
4597052
4597871
4597871
4598125
4598715
4598715
4599637
4599637
4599881
4600600
4600600
4600847
4601562
4601562
4602462
4602462
4602714
4603405
4603405
4603657
4604362
4604362
4604618
4605344
4605344
4606327
4606327
4606586
4607254
4607254
4607503
4608209
4608209
4608463
4609201
4609201
4610185
4610185
4610437
4611107
4611107
4611359
4612074
4612074
4612323
4613096
4613096
4613352
4614133
4614133
4615099
4615112
4615112
4616107
4616107
4616356
4617099
4617099
4617350
4618107
4618107
4618354
4619020
4619020
4619955
4619955
4620207
4620940
4620940
4621194
4621952
4621952
4622201
4622909
4622909
4623159
4623915
4623915
4624200
4624961
4624961
4625250
4626044
4626044
4626301
4627048
4627048
4628049
4628049
4628050
4629083
4629083
4629342
4630089
4630089
4630344
4631097
4631097
4631346
4632040
4632040
4632290
4633001
4633001
4633976
4633976
4634234
4634945
4634945
4635195
4635849
4635849
4636103
4636824
4636824
4637828
4637828
4638081
4638829
4638829
4639079
4639837
4639837
4640090
4640768
4640768
4641021
4641748
4641748
4642653
4642775
4642775
4643707
4643831
4643831
4644849
4644853
4644853
4645821
4645821
4646072
4646825
4646825
4647076
4647887
4647887
4648146
4648907
4648907
4649158
4649833
4649833
4650799
4650800
4650800
4651770
4651770
4652023
4652760
4652760
4653012
4653770
4653770
4654023
4654732
4654732
4655699
4655708
4655708
4656703
4656703
4656957
4657659
4657659
4657913
4658648
4658648
4658899
4659665
4659665
4659919
4660652
4660652
4661606
4661606
4661861
4662633
4662633
4662887
4663675
4663675
4663928
4664698
4664698
4664952
4665651
4665651
4665901
4666660
4666660
4666917
4667666
4667666
4668626
4668626
4668880
4669566
4669566
4669817
4670540
4670540
4670782
4671521
4671521
4672413
4672413
4672667
4673332
4673332
4673588
4674272
4674272
4675205
4675205
4675458
4676192
4676192
4676444
4677086
4677086
4678012
4678012
4678262
4679007
4679007
4679262
4680024
4680024
4680284
4681064
4681064
4681319
4682062
4682062
4682315
4683038
4683038
4684049
4684052
4684052
4685053
4685053
4685309
4686032
4686032
4686285
4686963
4686963
4687217
4687955
4687955
4688900
4688900
4689149
4689796
4689796
4690685
4690685
4690933
4691611
4691611
4691863
4692628
4692628
4692886
4693636
4693636
4693886
4694620
4694620
4694900
4695638
4695638
4696649
4696665
4696665
4697685
4697685
4697934
4698632
4698632
4698885
4699613
4699613
4699872
4700584
4700584
4701538
4701538
4701550
4702434
4702434
4702684
4703355
4703355
4704346
4704346
4704350
4705353
4705353
4705603
4706333
4706333
4706592
4707337
4707337
4707593
4708366
4708366
4708622
4709407
4709407
4709661
4710389
4710389
4710651
4711435
4711435
4711700
4712497
4712497
4712750
4713475
4713475
4714432
4714432
4714683
4715371
4715371
4715628
4716324
4716324
4717240
4717240
4717493
4718170
4718170
4718426
4719159
4719159
4719413
4720119
4720119
4721026
4721026
4721278
4721963
4721963
4722882
4722882
4723136
4723775
4723775
4724024
4724699
4724699
4725650
4725650
4725906
4726609
4726609
4726862
4727517
4727517
4728449
4728449
4728703
4729415
4729415
4729668
4730404
4730404
4730655
4731371
4731371
4732312
4732312
4732565
4733304
4733304
4733558
4734287
4734287
4734539
4735236
4735236
4736190
4736190
4736200
4737126
4737126
4737379
4738004
4738004
4738853
4738853
4739107
4739748
4739748
4740654
4740654
4740901
4741536
4741536
4742462
4742462
4742710
4743469
4743469
4743721
4744510
4744510
4744761
4745524
4745524
4745770
4746420
4746420
4747386
4747386
4747642
4748373
4748373
4748630
4749343
4749343
4749597
4750279
4750279
4750550
4751274
4751274
4752292
4752292
4752300
4753292
4753292
4753544
4754276
4754276
4754531
4755321
4755321
4755573
4756371
4756371
4756628
4757306
4757306
4757559
4758286
4758286
4759291
4759291
4759300
4760283
4760283
4760540
4761200
4761200
4761451
4762130
4762130
4763115
4763115
4763370
4764113
4764113
4764364
4765071
4765071
4765325
4766088
4766088
4766345
4767153
4767153
4767412
4768203
4768203
4768458
4769202
4769202
4769458
4770237
4770237
4770502
4771260
4771260
4772199
4772199
4772448
4773167
4773167
4773421
4774151
4774151
4774403
4775093
4775093
4776013
4776013
4776263
4776961
4776961
4777215
4777925
4777925
4778899
4778902
4778902
4779817
4779817
4780069
4780769
4780769
4781018
4781794
4781794
4782051
4782842
4782842
4783101
4783860
4783860
4784150
4784881
4784881
4785899
4785905
4785905
4786869
4786982
4786982
4787992
4787992
4788000
4788967
4788967
4789220
4789961
4789961
4790217
4790960
4790960
4791212
4791904
4791904
4792873
4792873
4793127
4793883
4793883
4794141
4794881
4794881
4795141
4795817
4795817
4796559
4796777
4796777
4797644
4797644
4798481
4798481
4798735
4799365
4799365
4799617
4800279
4800279
4801222
4801222
4801476
4802154
4802154
4802407
4803148
4803148
4803403
4804143
4804143
4805120
4805120
4805371
4806038
4806038
4806294
4807001
4807001
4807250
4807996
4807996
4808999
4809007
4809007
4809973
4809973
4810222
4810928
4810928
4811181
4811927
4811927
4812186
4812914
4812914
4813871
4813871
4814116
4814835
4814835
4815086
4815825
4815825
4816079
4816825
4816825
4817076
4817780
4817780
4818729
4818729
4818988
4819698
4819698
4819956
4820667
4820667
4821593
4821593
4821600
4822546
4822546
4822802
4823496
4823496
4823752
4824427
4824427
4825345
4825345
4825609
4826312
4826312
4826561
4827277
4827277
4828220
4828220
4828475
4829103
4829103
4829999
4830005
4830005
4830905
4830905
4831166
4831816
4831816
4832705
4832705
4832957
4833648
4833648
4833907
4834610
4834610
4835550
4835550
4835807
4836452
4836452
4836706
4837378
4837378
4838292
4838292
4838542
4839160
4839160
4840071
4840071
4840323
4840987
4840987
4841888
4841888
4842140
4842735
4842735
4843607
4843607
4843857
4844510
4844510
4844775
4845443
4845443
4846334
4846334
4846582
4847215
4847215
4848108
4848108
4848360
4849024
4849024
4849949
4849957
4849957
4850853
4850853
4851106
4851789
4851789
4852699
4852699
4852941
4853570
4853570
4854474
4854474
4854717
4855407
4855407
4855672
4856334
4856334
4857195
4857195
4857443
4858060
4858060
4858948
4858948
4859202
4859864
4859864
4860100
4860736
4860999
4861645
4861896
4861896
4862594
4862594
4863559
4863559
4863807
4864486
4864486
4864738
4865442
4865442
4865700
4866418
4866418
4867380
4867380
4867639
4868312
4868312
4868555
4869245
4869245
4870103
4870103
4870949
4870950
4870950
4871864
4871864
4872121
4872814
4872814
4873710
4873710
4873947
4874658
4874658
4874913
4875640
4875640
4875889
4876630
4876630
4877582
4877582
4877837
4878516
4878516
4878772
4879493
4879493
4879753
4880479
4880479
4881449
4881458
4881458
4882368
4882368
4882615
4883306
4883306
4883565
4884265
4884265
4885239
4885508
4885508
4886106
4886106
4886949
4886949
4887202
4887831
4887831
4888770
4888770
4889018
4889794
4889794
4890048
4890824
4890824
4891080
4891807
4891807
4892063
4892791
4892791
4893044
4893794
4893794
4894066
4894800
4894800
4895799
4895804
4895804
4896748
4896748
4897003
4897721
4897721
4897971
4898717
4898717
4898961
4899693
4899693
4900639
4900639
4900893
4901565
4901565
4901808
4902547
4902547
4902806
4903540
4903540
4904510
4904510
4904761
4905432
4905432
4905685
4906428
4906428
4906676
4907445
4907445
4907701
4908447
4908447
4909376
4909376
4909633
4910366
4910366
4910604
4911369
4911369
4911596
4912334
4912334
4913242
4913242
4913496
4914204
4914204
4914460
4915199
4915199
4915449
4916111
4916111
4917130
4917130
4917384
4918198
4918198
4918200
4919248
4919248
4919250
4920195
4920195
4920450
4921064
4921064
4921931
4921931
4922187
4922877
4922877
4923799
4923809
4923809
4924751
4924751
4925005
4925728
4925728
4925977
4926715
4926715
4926971
4927698
4927698
4928692
4928692
4928700
4929702
4929702
4929956
4930713
4930713
4930965
4931725
4931725
4931975
4932675
4932675
4932927
4933633
4933633
4934647
4934647
4934650
4935661
4935661
4935917
4936676
4936676
4936928
4937648
4937648
4937903
4938586
4938586
4939535
4939535
4939796
4940476
4940476
4940728
4941466
4941466
4941720
4942468
4942468
4942723
4943510
4943510
4943767
4944556
4944556
4944804
4945532
4945532
4946541
4946541
4946793
4947563
4947563
4947815
4948616
4948616
4948869
4949674
4949674
4949920
4950718
4950718
4950973
4951708
4951708
4951958
4952720
4952720
4952971
4953745
4953745
4953991
4954769
4954769
4954989
4955701
4955701
4956634
4956634
4956887
4957555
4957555
4957810
4958492
4958492
4959411
4959687
4959687
4960287
4960287
4961192
4961192
4961426
4962111
4962111
4962348
4963068
4963068
4964047
4964047
4964050
4965000
4965000
4965248
4965949
4965949
4966839
4966839
4967096
4967691
4967691
4968575
4968575
4968825
4969507
4969507
4969758
4970482
4970482
4970731
4971514
4971514
4971764
4972484
4972484
4973394
4973394
4973646
4974376
4974376
4974627
4975397
4975397
4975653
4976447
4976447
4976699
4977418
4977418
4978391
4978391
4978637
4979398
4979398
4979663
4980381
4980381
4980644
4981345
4981345
4981594
4982301
4982301
4983246
4983246
4983497
4984150
4984150
4984386
4985067
4985067
4986034
4986034
4986278
4986981
4986981
4987242
4988159
4988159
4988801
4988801
4989043
4989621
4989621
4990468
4990948
4991317
4991585
4991585
4991700
4992402
4992402
4993286
4993286
4993481
4994499
4994840
4994840
4994850
4995738
4995738
4996490
4996622
4996622
4997513
4997750
4997750
4998396
4998396
4999251
4999251
5000089
5000089
5000344
5000926
5000926
5001787
5001787
5002038
5002687
5002687
5003581
5003581
5003833
5004483
5004483
5004736
5005405
5005405
5006356
5006356
5006613
5007302
5007302
5007552
5008243
5008243
5008501
5009225
5009225
5010234
5010234
5010489
5011260
5011260
5011515
5012196
5012196
5012448
5013186
5013186
5013432
5014177
5014177
5015137
5015137
5015150
5016011
5016011
5016821
5016821
5017599
5017611
5017611
5018371
5018371
5019133
5019133
5019943
5019943
5020187
5020882
5020882
5021104
5021820
5021820
5022779
5022779
5023036
5023750
5023750
5024006
5024699
5024699
5025628
5025628
5025877
5026565
5026565
5026808
5027502
5027502
5028424
5028424
5028679
5029284
5029284
5030150
5030150
5030406
5031029
5031029
5031270
5031970
5031970
5032916
5032916
5033165
5033805
5033805
5034749
5034753
5034753
5035746
5035746
5035995
5036763
5036763
5037018
5037766
5037766
5038024
5038734
5038734
5038978
5039711
5039711
5040639
5040639
5040891
5041571
5041571
5041822
5042550
5042550
5042805
5043573
5043573
5043850
5044620
5044620
5044900
5045662
5045662
5046604
5046604
5046854
5047593
5047593
5047844
5048611
5048611
5048860
5049616
5049616
5049869
5050592
5050592
5051537
5051537
5051793
5052423
5052423
5052675
5053368
5053368
5054349
5054357
5054357
5055381
5055381
5055634
5056410
5056410
5056666
5057395
5057395
5057649
5058382
5058382
5058633
5059407
5059407
5059658
5060443
5060443
5060697
5061414
5061414
5062399
5062414
5062414
5063449
5063468
5063468
5064499
5064501
5064501
5065481
5065481
5065735
5066481
5066481
5066737
5067492
5067492
5067747
5068524
5068524
5068777
5069553
5069553
5069805
5070496
5070496
5071499
5071504
5071504
5072549
5072556
5072556
5073528
5073528
5073782
5074498
5074498
5074750
5075453
5075453
5075706
5076457
5076457
5077449
5077455
5077455
5078425
5078425
5078680
5079320
5079320
5080244
5080244
5080250
5081210
5081210
5081466
5082141
5082141
5082387
5083104
5083104
5084099
5084109
5084109
5085130
5085130
5085378
5086098
5086098
5086352
5087099
5087099
5087353
5088120
5088120
5088373
5089070
5089070
5090028
5090028
5090282
5090968
5090968
5091225
5091899
5091899
5092792
5092792
5093049
5093718
5093718
5093967
5094660
5094660
5095649
5095664
5095664
5096665
5096665
5096921
5097637
5097637
5097886
5098649
5098649
5098904
5099683
5099683
5099934
5100683
5100683
5100933
5101650
5101650
5102574
5102678
5102678
5103699
5103707
5103707
5104663
5104663
5104910
5105603
5105603
5105855
5106590
5106590
5106850
5107603
5107603
5108599
5108611
5108611
5109559
5109559
5109812
5110544
5110544
5110795
5111555
5111555
5111814
5112490
5112490
5113423
5113423
5113675
5114325
5114325
5115247
5115247
5115250
5116245
5116245
5116497
5117219
5117219
5117460
5118082
5118082
5118897
5118897
5119787
5119787
5120035
5120825
5120825
5121078
5121829
5121829
5122077
5122842
5122842
5123104
5123866
5123866
5124124
5124823
5124823
5125081
5125849
5125849
5126101
5126920
5126920
5127175
5128016
5128016
5128276
5129117
5129117
5129373
5130194
5130194
5130446
5131254
5131254
5131509
5132317
5132317
5132571
5133367
5133367
5133618
5134382
5134382
5134634
5135444
5135444
5135694
5136502
5136502
5136754
5137586
5137586
5137837
5138590
5138590
5138846
5139627
5139627
5139887
5140699
5140699
5140958
5141767
5141767
5142023
5142723
5142723
5142978
5143741
5143741
5143989
5144778
5144778
5145029
5145728
5145728
5146716
5146716
5146967
5147777
5147777
5148030
5148849
5148857
5148857
5149857
5149972
5149972
5150250
5151039
5151039
5151999
5152002
5152002
5153021
5153021
5153281
5154036
5154036
5154290
5155012
5155012
5155271
5155973
5155973
5156899
5156907
5156907
5157803
5157803
5158056
5158752
5158752
5159005
5159723
5159723
5160618
5160618
5161394
5161394
5161570
5162499
5162500
5162500
5163383
5163383
5164249
5164252
5164252
5165153
5165153
5165386
5166161
5166161
5166375
5167142
5167142
5168080
5168080
5168333
5169071
5169071
5169321
5170061
5170061
5170314
5171026
5171026
5171941
5171941
5171950
5172901
5172901
5173153
5173869
5173869
5174125
5174804
5174804
5175680
5175680
5175934
5176593
5176593
5177537
5177537
5177799
5178521
5178521
5178779
5179484
5179484
5179738
5180434
5180434
5180701
5181453
5181453
5182449
5182467
5182467
5183497
5183497
5183500
5184530
5184530
5184789
5185499
5185499
5185751
5186454
5186454
5186707
5187415
5187415
5188377
5188377
5188635
5189334
5189334
5189593
5190303
5190303
5190559
5191280
5191280
5192227
5192227
5192724
5192724
5193217
5193469
5194228
5194228
5194486
5195238
5195238
5195472
5196208
5196208
5197111
5197111
5197378
5198056
5198056
5198308
5198998
5198998
5199886
5199886
5200140
5200799
5200799
5201052
5201740
5201740
5202734
5202734
5202988
5203717
5203717
5203971
5204726
5204726
5204985
5205768
5205768
5206021
5206793
5206793
5207050
5207803
5207803
5208060
5208842
5208842
5209102
5209887
5209887
5210136
5210911
5210911
5211164
5211962
5211962
5212219
5212998
5212998
5213253
5213993
5213993
5214914
5215022
5215022
5216049
5216061
5216061
5217075
5217075
5217331
5218048
5218048
5218303
5219081
5219081
5219340
5220115
5220115
5220362
5221032
5221032
5221301
5222019
5222019
5223042
5223042
5223050
5224092
5224092
5224100
5225125
5225125
5225382
5226094
5226094
5226347
5227140
5227140
5227406
5228198
5228198
5228443
5229189
5229189
5229441
5230188
5230188
5230445
5231190
5231190
5232149
5232150
5232150
5233140
5233140
5233405
5234138
5234138
5234393
5235073
5235073
5235329
5236012
5236012
5236950
5236950
5237210
5237888
5237888
5238773
5238773
5239031
5239721
5239721
5239978
5240716
5240716
5240971
5241730
5241730
5241986
5242669
5242669
5243607
5243607
5243869
5244614
5244614
5244870
5245626
5245626
5245882
5246620
5246620
5247542
5247542
5247550
5248526
5248526
5248789
5249540
5249540
5249798
5250570
5250570
5250831
5251564
5251564
5251821
5252508
5252508
5253498
5253498
5253500
5254472
5254472
5254723
5255398
5255398
5255656
5256376
5256376
5256650
5257380
5257380
5258363
5258363
5258611
5259307
5259307
5259564
5260321
5260321
5260572
5261391
5261391
5261644
5262407
5262407
5262661
5263360
5263360
5263650
5264373
5264373
5265386
5265386
5265641
5266337
5266337
5266594
5267347
5267347
5267609
5268391
5268391
5268653
5269399
5269399
5269656
5270345
5270345
5271274
5271375
5271375
5272399
5272414
5272414
5273399
5273399
5273656
5274363
5274363
5274624
5275381
5275381
5275642
5276413
5276413
5276669
5277380
5277380
5277650
5278403
5278403
5278700
5279481
5279481
5279750
5280523
5280523
5281499
5281510
5281510
5282474
5282573
5282573
5283519
5283626
5283626
5284617
5284617
5284872
5285661
5285661
5285910
5286693
5286693
5286943
5287654
5287654
5287910
5288687
5288687
5288944
5289775
5289775
5290036
5290832
5290832
5291088
5291822
5291822
5292079
5292867
5292867
5293120
5293933
5293933
5294197
5294915
5294915
5295170
5295885
5295885
5296874
5296874
5297134
5297846
5297846
5298101
5298787
5298787
5299037
5299796
5299796
5300054
5300840
5300840
5301100
5301877
5301877
5302150
5302896
5302896
5303846
5303943
5303943
5304878
5304989
5304989
5305967
5305967
5306224
5307018
5307018
5307277
5308099
5308102
5308102
5309126
5309126
5309380
5310118
5310118
5310381
5311151
5311151
5311406
5312145
5312145
5312398
5313083
5313083
5313350
5314084
5314084
5315016
5315120
5315120
5316149
5316158
5316158
5317120
5317120
5317380
5318140
5318140
5318399
5319181
5319181
5319443
5320224
5320224
5320486
5321214
5321214
5321466
5322213
5322213
5322468
5323228
5323228
5323501
5324265
5324265
5324550
5325324
5325324
5325600
5326397
5326397
5326653
5327383
5327383
5328369
5328369
5328626
5329403
5329403
5329659
5330403
5330403
5330665
5331310
5331310
5332243
5332243
5332250
5333203
5333203
5333450
5334193
5334193
5334459
5335207
5335207
5335459
5336178
5336178
5337138
5337138
5337389
5338167
5338167
5338411
5339202
5339202
5339461
5340208
5340208
5340469
5341151
5341151
5341406
5342165
5342165
5342424
5343189
5343189
5343451
5344181
5344181
5345152
5345152
5345409
5346179
5346179
5346434
5347221
5347221
5347477
5348227
5348227
5348482
5349254
5349510
5349510
5350269
5350269
5350526
5351239
5351239
5352173
5352173
5352429
5353152
5353152
5353407
5354127
5354127
5354379
5355041
5355041
5356000
5356000
5356252
5356923
5356923
5357171
5357852
5357852
5358753
5358753
5359014
5359617
5359617
5360478
5360478
5360735
5361368
5361368
5362276
5362276
5362531
5363221
5363221
5363469
5364119
5364119
5365015
5365015
5365276
5365937
5365937
5366899
5366901
5366901
5367873
5367873
5368132
5368796
5368796
5369044
5369778
5369778
5370050
5370784
5370784
5371790
5371790
5371800
5372729
5372729
5372984
5373718
5373718
5373980
5374728
5374728
5374982
5375672
5375672
5376614
5376614
5376859
5377578
5377578
5377825
5378559
5378559
5378821
5379545
5379545
5380483
5380483
5380730
5381370
5381370
5382269
5382269
5382503
5383226
5383226
5383481
5384221
5384221
5384464
5385213
5385213
5385464
5386213
5386213
5387158
5387158
5387416
5388101
5388101
5388355
