8736	27
8736	27
8739	27
8740	27
8739	27
8738	27
8739	27
8739	27
8736	27
8732	27
8731	27
8728	27
8722	27
8716	27
8711	27
8706	27
8697	27
8689	27
8682	27
8676	27
8668	27
8661	27
8657	27
8654	27
8652	27
8652	27
8657	27
8665	27
8674	27
8688	28
8707	28
8730	28
8755	29
8783	29
8817	30
8853	31
8889	31
8925	32
8964	33
9001	33
9033	34
9061	34
9085	35
9102	35
9107	35
9101	34
9086	34
9056	33
9008	32
8945	30
8866	28
8768	26
8650	24
8513	22
8359	19
8186	16
7993	13
7784	11
7561	8
7325	5
7074	3
6813	2
6547	0
6275	0
5998	0
5722	2
5450	4
5182	8
4920	13
4668	19
4429	26
4204	35
3993	46
3798	58
3622	72
3465	87
3325	104
3204	122
3104	141
3022	162
2955	184
2906	207
2873	231
2855	256
2847	282
2850	308
2865	335
2887	362
2913	390
2944	417
2979	445
3016	472
3052	500
3087	527
3122	554
3154	580
3182	607
3206	632
3228	658
3247	683
3259	707
3268	731
3275	755
3279	778
3278	801
3275	824
3271	847
3266	869
3257	891
3248	913
3240	935
3232	957
3222	978
3213	1000
3206	1022
3199	1043
3191	1065
3184	1086
3179	1108
3175	1129
3170	1151
3165	1172
3163	1193
3161	1214
3158	1236
3155	1257
3155	1278
3154	1299
3153	1320
3151	1340
3149	1361
3147	1382
3146	1402
3145	1423
3143	1443
3142	1463
3142	1483
3142	1503
3142	1523
3141	1543
3142	1562
3144	1582
3146	1602
3147	1621
3150	1640
3153	1659
3156	1679
3159	1698
3163	1717
3168	1736
3172	1754
3175	1773
3180	1792
3186	1810
3190	1829
3194	1847
3199	1866
3204	1884
3208	1902
3211	1920
3214	1938
3218	1956
3219	1974
3220	1992
3222	2009
3223	2027
3222	2044
3220	2062
3218	2079
3216	2096
3213	2114
3208	2131
3204	2148
3199	2165
3193	2182
3186	2199
3180	2216
3173	2232
3166	2249
3158	2265
3151	2282
3144	2298
3136	2314
3128	2331
3121	2347
3115	2363
3108	2379
3101	2395
3095	2411
3090	2426
3085	2442
3080	2458
3077	2473
3074	2489
3071	2504
3069	2520
3067	2535
3066	2550
3065	2565
3065	2581
3065	2596
3066	2611
3066	2625
3066	2640
3068	2655
3069	2670
3070	2684
3071	2699
3072	2713
3074	2728
3075	2742
3075	2757
3077	2771
3078	2785
3078	2800
3078	2814
3079	2828
3079	2842
3079	2856
3078	2869
3078	2883
3078	2897
3077	2911
3076	2924
3076	2938
3075	2951
3074	2964
3073	2978
3072	2991
3071	3004
3070	3017
3069	3030
3068	3043
3068	3056
3067	3069
3065	3082
3065	3095
3065	3107
3064	3120
3063	3133
3063	3145
3063	3157
3062	3170
3061	3182
3061	3194
3061	3207
3060	3219
3059	3231
3059	3243
3059	3255
3059	3267
3058	3279
3058	3291
3058	3303
3057	3315
3057	3326
3056	3338
3056	3350
3056	3361
3055	3373
3055	3384
3055	3396
3054	3407
3053	3418
3053	3430
3053	3441
3053	3452
3052	3463
3052	3474
3052	3485
3051	3497
3050	3508
3050	3518
3050	3529
3050	3540
3049	3551
3049	3562
3049	3572
3049	3583
3048	3594
3048	3604
3048	3614
3048	3625
3047	3635
3047	3646
3047	3656
3047	3666
3046	3676
3046	3686
3046	3696
3046	3706
3045	3716
3045	3726
3045	3736
3044	3746
3043	3756
3043	3766
3043	3775
3043	3785
3042	3795
3042	3804
3042	3814
3041	3823
3041	3833
3040	3842
3041	3851
3040	3860
3040	3870
3039	3879
3040	3888
3039	3897
3039	3906
3039	3916
3039	3925
3039	3934
3038	3943
3038	3952
3039	3961
3038	3969
3038	3978
3038	3987
3038	3996
3038	4005
3038	4013
3038	4022
3038	4031
3038	4039
3037	4048
3037	4056
3038	4065
3037	4073
3037	4082
3037	4090
3037	4098
3037	4107
3037	4115
3037	4123
3037	4131
3037	4139
3037	4147
3037	4155
3037	4163
3037	4171
3036	4179
3037	4187
3037	4195
3037	4203
3037	4210
3037	4218
3037	4226
3037	4233
3037	4241
3037	4249
3038	4256
3038	4264
3038	4271
3038	4279
3039	4286
3039	4294
3039	4301
3039	4309
3040	4316
3040	4323
3040	4331
3040	4338
3040	4345
3040	4353
3040	4360
3040	4367
3041	4374
3041	4381
3040	4388
3040	4395
3041	4403
3040	4410
3040	4417
3040	4424
3040	4431
3040	4437
3039	4444
3039	4451
3039	4458
3039	4465
3038	4472
3038	4478
3038	4485
3037	4492
3037	4498
3037	4505
3037	4512
3036	4518
3036	4525
3036	4531
3036	4538
3036	4544
3035	4551
3035	4557
3035	4563
3035	4570
3035	4576
3035	4582
3035	4589
3035	4595
3034	4601
3034	4607
3034	4613
3034	4619
3034	4625
3033	4632
3033	4638
3033	4644
3032	4650
3032	4656
3032	4662
3031	4667
3031	4673
3030	4679
3030	4685
3029	4691
3028	4697
3027	4703
3026	4708
3025	4714
3024	4720
3023	4725
3022	4731
3021	4737
3020	4742
3018	4748
3017	4753
3016	4759
3014	4764
3012	4770
3011	4775
3009	4781
3007	4786
3006	4792
3004	4797
3002	4802
3000	4808
2999	4813
2997	4818
2995	4823
2993	4829
2991	4834
2990	4839
2988	4844
2986	4849
2984	4854
2982	4859
2980	4865
2979	4870
2977	4875
2976	4880
2974	4885
2972	4890
2971	4895
2970	4900
2968	4904
2967	4909
2966	4914
2965	4919
2963	4924
2962	4929
2961	4933
2960	4938
2959	4943
2958	4947
2958	4952
2957	4957
2956	4961
2955	4966
2955	4971
2954	4975
2953	4980
2952	4984
2952	4989
2951	4993
2951	4998
2950	5002
2949	5006
2948	5011
2947	5015
2947	5020
2946	5024
2945	5028
2944	5032
2943	5037
2942	5041
2941	5045
2940	5049
2939	5054
2939	5058
2938	5062
2937	5066
2936	5070
2935	5074
2935	5078
2934	5082
2933	5086
2933	5090
2932	5094
2932	5098
2931	5102
2931	5106
2931	5110
2931	5114
2931	5118
2931	5122
2932	5126
2932	5130
2932	5133
2933	5137
2933	5141
2934	5145
2934	5148
2935	5152
2936	5156
2936	5160
2937	5163
2937	5167
2938	5170
2938	5174
2938	5178
2939	5181
2939	5185
2940	5188
2940	5192
2940	5195
2940	5199
2940	5202
2940	5206
2940	5209
2940	5213
2940	5216
2940	5219
2940	5223
2940	5226
2939	5229
2939	5233
2939	5236
2939	5239
2938	5243
2938	5246
2937	5249
2937	5253
2937	5256
2937	5259
2936	5262
2936	5266
2936	5269
2936	5272
2935	5275
2935	5278
2935	5281
2935	5285
2935	5288
2935	5291
2935	5294
2935	5297
2935	5300
2935	5303
2936	5306
2936	5309
2936	5312
2936	5315
2936	5318
2937	5321
2937	5323
2937	5326
2938	5329
2938	5332
2938	5335
2939	5338
2939	5341
2939	5343
2940	5346
2940	5349
2940	5352
2941	5354
2941	5357
2941	5360
2941	5363
2941	5365
2941	5368
2942	5371
2942	5373
2941	5376
2941	5379
2941	5381
2941	5384
2941	5386
2941	5389
2940	5391
2940	5394
2940	5397
2939	5399
2939	5402
2939	5404
2938	5407
2938	5409
2937	5412
2937	5414
2937	5416
2936	5419
2936	5421
2936	5424
2935	5426
2935	5428
2935	5431
2935	5433
2935	5436
2934	5438
2934	5440
2934	5443
2934	5445
2934	5447
2934	5450
2935	5452
2935	5454
2935	5457
2935	5459
2935	5461
2935	5463
2935	5466
2935	5468
2936	5470
2936	5472
2936	5474
2936	5477
2936	5479
2936	5481
2937	5483
2937	5485
2937	5487
2937	5489
2937	5492
2938	5494
2938	5496
2938	5498
2938	5500
2938	5502
2938	5504
2938	5506
2938	5508
2938	5510
2938	5512
2938	5514
2938	5516
2938	5518
2938	5520
2938	5522
2938	5524
2937	5526
2937	5528
2937	5530
2936	5531
2936	5533
2935	5535
2935	5537
2934	5539
2934	5541
2933	5543
2933	5545
2932	5546
2932	5548
2932	5550
2931	5552
2931	5554
2931	5555
2931	5557
2931	5559
2931	5561
2931	5562
2931	5564
2931	5566
2931	5568
2932	5569
2932	5571
2932	5573
2933	5574
2933	5576
2933	5578
2934	5579
2934	5581
2935	5583
2935	5584
2935	5586
2935	5588
2936	5589
2936	5591
2936	5592
2936	5594
2936	5596
2935	5597
2935	5599
2935	5600
2935	5602
2935	5603
2934	5605
2934	5606
2934	5608
2933	5609
2933	5611
2932	5613
2932	5614
2932	5616
2931	5617
2931	5619
2931	5620
2931	5621
2931	5623
2930	5624
2930	5626
2930	5627
2930	5629
2930	5630
2930	5632
2930	5633
2930	5635
2930	5636
2931	5637
2931	5639
2931	5640
2931	5642
2931	5643
2931	5644
2931	5646
2931	5647
2931	5648
2931	5650
2931	5651
2931	5652
2931	5654
2931	5655
2930	5656
2930	5658
2930	5659
2930	5660
2930	5662
2930	5663
2929	5664
2929	5665
2929	5667
2929	5668
2929	5669
2928	5671
2928	5672
2928	5673
2928	5674
2928	5676
2927	5677
2927	5678
2927	5679
2927	5680
2927	5682
2927	5683
2927	5684
2927	5685
2927	5686
2927	5688
2927	5689
2927	5690
2927	5691
2927	5692
2927	5693
2927	5694
2927	5695
2927	5697
2928	5698
2928	5699
2927	5700
2927	5701
2927	5702
2927	5703
2927	5704
2927	5705
2927	5706
2927	5707
2926	5708
2926	5709
2926	5710
2926	5711
2925	5712
2925	5713
2925	5714
2925	5715
2924	5716
2924	5718
2924	5719
2924	5720
2924	5721
2924	5722
2924	5723
2924	5724
2924	5725
2924	5726
2924	5726
2924	5727
2924	5728
2924	5729
2924	5730
2925	5731
2925	5732
2925	5733
2925	5734
2925	5735
2926	5736
2926	5737
2926	5738
2926	5739
2926	5740
2926	5741
2926	5742
2926	5743
2927	5743
2927	5744
2927	5745
2927	5746
2927	5747
2927	5748
2927	5749
2927	5750
2928	5751
2928	5751
2928	5752
2928	5753
2929	5754
2929	5755
2930	5756
2930	5756
2930	5757
2931	5758
2931	5759
2932	5760
2932	5760
2933	5761
2933	5762
2933	5763
2934	5764
2934	5764
2935	5765
2935	5766
2935	5767
2936	5767
2936	5768
2936	5769
2936	5770
2937	5771
2937	5771
2937	5772
2937	5773
2937	5774
2937	5774
2937	5775
2936	5776
2936	5777
2936	5778
2936	5778
2935	5779
2935	5780
2935	5780
2934	5781
2934	5782
2934	5783
2933	5783
2933	5784
2932	5785
2932	5785
2931	5786
2931	5787
2930	5787
2930	5788
2929	5789
2929	5789
2928	5790
2928	5791
2927	5791
2927	5792
2927	5793
2926	5793
2926	5794
2925	5795
2925	5795
2925	5796
2924	5797
2924	5797
2924	5798
2924	5799
2923	5799
2923	5800
2923	5801
2923	5801
2923	5802
2922	5802
2922	5803
2922	5804
2922	5804
2922	5805
2922	5805
2922	5806
2922	5806
2921	5807
2921	5807
2921	5808
2921	5808
2921	5809
2921	5809
2921	5810
2922	5811
2922	5811
2922	5812
2922	5812
2922	5813
2922	5813
2922	5814
2923	5814
2923	5815
2923	5815
2924	5816
2924	5816
2924	5817
2925	5817
2925	5818
2925	5819
2926	5819
2926	5820
2926	5820
2926	5821
2926	5821
2926	5822
2926	5823
2926	5823
2925	5824
2925	5824
2925	5825
2924	5825
2923	5826
2922	5826
2921	5827
2920	5827
2919	5828
2918	5828
2917	5829
2915	5829
2914	5830
2913	5830
2912	5831
2911	5831
2910	5832
2909	5832
2909	5833
2909	5833
2909	5834
2909	5834
2910	5835
2911	5835
2913	5835
2915	5836
2918	5836
2921	5837
2924	5837
2928	5838
2932	5838
2937	5839
2942	5839
2947	5840
2953	5840
2959	5840
2965	5841
2971	5841
2977	5842
2983	5842
2988	5843
2994	5843
2999	5843
3004	5844
3009	5844
3012	5844
3016	5845
3018	5845
3020	5846
3022	5846
3022	5846
3022	5847
3021	5847
3019	5847
3017	5848
3014	5848
3010	5848
3005	5849
3000	5849
2994	5850
2988	5850
2982	5850
2975	5851
2968	5851
2961	5851
2954	5852
2947	5852
2940	5852
2934	5853
2927	5853
2921	5853
2915	5854
2910	5854
2905	5855
2901	5855
2898	5855
2894	5856
2892	5856
2890	5856
2888	5857
2887	5857
2887	5857
2887	5858
2887	5858
2888	5858
2889	5859
2891	5859
2892	5859
2894	5860
2896	5860
2898	5860
2901	5861
2903	5861
2905	5861
2907	5862
2909	5862
2911	5862
2912	5863
2914	5863
2915	5863
2917	5864
2918	5864
2919	5864
2919	5865
2920	5865
2921	5865
2921	5866
2921	5866
2921	5866
2921	5866
2921	5867
2921	5867
2921	5867
2921	5868
2921	5868
2921	5868
2920	5868
2920	5869
2920	5869
2920	5869
2919	5869
2919	5870
2919	5870
2919	5870
2919	5870
2918	5870
2918	5871
2918	5871
2918	5871
2918	5871
2918	5872
2918	5872
2918	5872
2918	5872
2918	5872
2918	5873
2918	5873
2918	5873
2918	5873
2919	5874
2919	5874
2919	5874
2920	5874
2920	5875
2920	5875
2921	5875
2921	5875
2922	5876
2922	5876
2923	5876
2924	5876
2924	5877
2925	5877
2925	5877
2926	5877
2926	5878
2927	5878
2927	5878
2928	5878
2928	5879
2929	5879
2929	5879
2929	5879
2930	5880
2930	5880
2930	5880
2931	5880
2931	5881
2931	5881
2931	5881
2931	5881
2931	5882
2931	5882
2931	5882
2931	5882
2932	5882
2932	5883
2932	5883
2932	5883
2932	5883
2932	5883
2932	5884
2932	5884
2931	5884
2931	5884
2931	5884
2931	5885
2931	5885
2931	5885
2931	5885
2931	5885
2931	5885
2931	5886
2932	5886
2932	5886
2932	5886
2932	5886
2932	5887
2932	5887
2933	5887
2933	5887
2933	5887
2934	5888
2934	5888
2935	5888
2935	5888
2935	5888
2936	5889
2937	5889
2937	5889
2938	5889
2938	5889
2939	5890
2939	5890
2940	5890
2940	5890
2941	5890
2941	5890
2942	5891
2942	5891
2943	5891
2943	5891
2943	5891
2944	5891
2944	5892
2945	5892
2945	5892
2946	5892
2946	5892
2947	5892
2947	5893
2948	5893
2948	5893
2949	5893
2949	5893
2950	5893
2951	5894
2951	5894
2952	5894
2953	5894
2953	5895
2954	5895
2955	5895
2956	5895
2956	5896
2957	5896
2958	5896
2958	5897
2959	5897
2959	5897
2960	5898
2960	5898
2961	5898
2961	5899
2961	5899
2962	5899
2962	5900
2962	5900
2963	5900
2963	5901
2963	5901
2963	5901
2964	5902
2964	5902
2964	5902
2965	5903
2965	5903
2965	5903
2966	5903
2966	5904
2966	5904
2967	5904
2967	5905
2968	5905
2968	5905
2969	5906
2969	5906
2969	5906
2970	5906
2970	5907
2970	5907
2971	5907
2971	5908
2971	5908
2971	5908
2971	5909
2971	5909
2971	5909
2971	5910
2971	5910
2970	5910
2970	5911
2970	5911
2970	5911
2969	5912
2969	5912
2969	5912
2968	5913
2968	5913
2967	5913
2967	5914
2966	5914
2966	5914
2965	5915
2965	5915
2964	5915
2964	5916
2963	5916
2962	5916
2962	5917
2961	5917
2960	5917
2959	5918
2958	5918
2957	5918
2956	5919
2955	5919
2954	5919
2953	5919
2951	5920
2950	5920
2949	5920
2947	5921
2946	5921
2945	5921
2943	5921
2942	5922
2941	5922
2939	5922
2938	5923
2937	5923
2936	5923
2934	5923
2933	5924
2932	5924
2931	5924
2930	5924
2929	5925
2928	5925
2927	5925
2926	5925
2925	5925
2924	5926
2923	5926
2922	5926
2921	5926
2920	5927
2919	5927
2918	5927
2916	5927
2915	5927
2914	5928
2913	5928
2912	5928
2911	5928
2909	5929
2908	5929
2907	5929
2906	5929
2905	5929
2904	5930
2903	5930
2902	5930
2901	5930
2901	5931
2900	5931
2900	5931
2899	5931
2899	5932
2898	5932
2898	5932
2898	5932
2898	5933
2898	5933
2898	5933
2898	5933
2898	5933
2898	5934
2898	5934
2898	5934
2898	5934
2898	5935
2898	5935
2898	5935
2898	5935
2898	5936
2898	5936
2898	5936
2898	5936
2897	5936
2897	5937
2897	5937
2896	5937
2896	5937
2896	5937
2896	5937
2895	5938
2895	5938
2895	5938
2895	5938
2894	5938
2894	5938
2894	5938
2894	5939
2894	5939
2894	5939
2894	5939
2894	5939
2894	5939
2895	5939
2895	5940
2895	5940
2896	5940
2896	5940
2896	5940
2897	5940
2897	5940
2897	5941
2898	5941
2898	5941
2898	5941
2899	5941
2899	5941
2899	5941
2899	5942
2900	5942
2900	5942
2900	5942
2900	5942
2900	5942
2900	5943
2900	5943
2900	5943
2900	5943
2899	5943
2899	5943
2899	5944
2899	5944
2899	5944
2899	5944
2898	5944
2898	5944
2898	5944
2898	5944
2898	5945
2898	5945
2898	5945
2898	5945
2898	5945
2898	5945
2898	5945
2898	5945
2898	5945
2898	5945
2898	5946
2898	5946
2899	5946
2899	5946
2899	5946
2900	5946
2900	5946
2900	5946
2901	5946
2901	5946
2901	5946
2902	5946
2902	5946
2902	5946
2903	5946
2903	5946
2903	5946
2903	5946
2904	5947
2904	5947
2904	5947
2904	5947
2904	5947
2904	5947
2904	5947
2904	5947
2904	5947
2904	5947
2904	5947
2904	5947
2904	5947
2904	5948
2903	5948
2903	5948
2903	5948
2903	5948
2903	5948
2902	5948
2902	5948
2902	5948
2902	5948
2902	5948
2901	5948
2901	5948
2901	5948
2901	5948
2901	5948
2901	5948
2901	5948
2901	5948
2901	5948
2900	5948
2900	5948
2900	5948
2900	5948
2900	5948
2900	5948
2900	5948
2900	5948
2901	5948
2901	5948
2901	5948
2901	5948
2901	5948
2901	5948
2901	5948
2901	5949
2901	5949
2901	5949
2902	5949
2902	5949
2902	5949
2902	5949
2902	5949
2902	5949
2903	5949
2903	5949
2903	5949
2903	5949
2903	5949
2903	5949
2903	5949
2904	5949
2904	5949
2904	5949
2904	5949
2904	5949
2904	5949
2904	5949
2904	5949
2904	5949
2904	5949
2904	5949
2904	5949
2904	5949
2904	5949
2903	5949
2903	5949
2903	5949
2903	5949
2903	5949
2902	5949
2902	5949
2902	5949
2902	5949
2902	5949
2901	5949
2901	5949
2901	5949
2901	5949
2901	5949
2901	5949
2901	5949
2901	5949
2901	5949
2901	5949
2901	5949
2901	5950
2901	5950
2901	5950
2901	5950
2902	5950
2902	5950
2902	5950
2903	5950
2903	5950
2903	5950
2903	5950
2904	5950
2904	5950
2904	5950
2905	5950
2905	5950
2905	5950
2905	5950
2906	5950
2906	5950
2906	5950
2906	5950
2906	5950
2906	5950
2906	5950
2905	5950
2905	5950
2905	5950
2905	5950
2905	5950
2904	5950
2904	5950
2904	5950
2904	5950
2904	5950
2903	5950
2903	5950
2903	5950
2903	5950
2903	5950
2903	5950
2903	5950
2903	5950
2903	5950
2903	5950
2903	5950
2903	5949
2903	5949
2903	5949
2903	5949
2903	5949
2903	5949
2903	5949
2903	5949
2904	5949
2904	5949
2904	5949
2904	5949
2904	5949
2904	5949
2904	5949
2904	5949
2904	5949
2904	5949
2903	5949
2903	5949
2903	5949
2903	5949
2903	5949
2903	5949
2903	5949
2903	5949
2903	5949
2903	5949
2903	5949
2903	5949
2903	5949
2904	5949
2904	5949
2904	5949
2904	5949
2904	5949
2905	5949
2905	5949
2905	5949
2906	5949
2906	5949
2906	5949
2907	5949
2907	5949
2907	5949
2907	5949
2908	5949
2908	5949
2908	5949
2908	5948
2908	5948
2908	5948
2908	5948
2908	5948
2908	5948
2908	5948
2908	5948
2908	5948
2908	5948
2908	5948
2908	5948
2908	5948
2908	5948
2907	5948
2907	5948
2907	5948
2907	5948
2907	5948
2907	5948
2907	5948
2907	5948
2907	5948
2907	5948
2907	5948
2907	5948
2907	5948
2907	5948
2908	5948
2908	5948
2908	5948
2908	5948
2908	5948
2908	5948
2909	5948
2909	5948
2909	5948
2909	5948
2909	5948
2910	5947
2910	5947
2910	5947
2910	5947
2910	5947
2910	5947
2910	5947
2910	5947
2910	5947
2910	5947
2911	5947
2911	5947
2911	5947
2911	5947
2911	5947
2911	5947
2911	5947
2911	5947
2911	5947
2911	5947
2911	5947
2912	5946
2912	5946
2912	5946
2912	5946
2912	5946
2912	5946
2912	5946
2912	5946
2912	5946
2912	5946
2912	5946
2912	5946
2912	5946
2912	5946
2912	5946
2912	5946
2912	5946
2912	5946
2912	5946
2912	5946
2912	5946
2912	5946
2912	5946
2912	5946
2912	5946
2912	5946
2912	5946
2912	5946
2912	5946
2912	5946
2913	5946
2913	5946
2913	5946
2914	5946
2914	5946
2915	5946
2915	5946
2916	5946
2917	5946
2917	5945
2918	5945
2918	5945
2919	5945
2920	5945
2920	5945
2921	5945
2921	5945
2922	5945
2922	5945
2922	5945
2923	5945
2923	5945
2923	5945
2923	5945
2923	5945
2924	5945
2923	5945
2923	5945
2923	5945
2923	5945
2923	5945
2923	5945
2922	5945
2922	5945
2922	5945
2921	5945
2921	5945
2921	5945
2920	5945
2920	5945
2919	5945
2919	5945
2918	5945
2918	5945
2918	5945
2917	5945
2917	5945
2916	5944
2916	5944
2916	5944
2915	5944
2915	5944
2915	5944
2914	5944
2914	5944
2914	5944
2913	5944
2913	5944
2913	5944
2913	5944
2912	5944
2912	5944
2912	5944
2912	5944
2912	5943
2912	5943
2912	5943
2912	5943
2911	5943
2911	5943
2911	5943
2911	5943
2911	5943
2911	5943
2911	5943
2911	5943
2911	5943
2911	5943
2911	5943
2911	5943
2911	5943
2911	5943
2911	5943
2911	5943
2911	5943
2911	5943
2911	5943
2911	5943
2912	5943
2912	5943
2912	5943
2913	5943
2913	5942
2913	5942
2914	5942
2914	5942
2914	5942
2915	5942
2915	5942
2916	5942
2916	5942
2916	5942
2916	5942
2916	5942
2916	5942
2916	5942
2916	5942
2915	5942
2915	5942
2914	5942
2913	5942
2912	5942
2911	5942
2910	5942
2909	5942
2908	5941
2906	5941
2905	5941
2904	5941
2903	5941
2902	5941
2901	5941
2900	5941
2900	5941
2900	5941
2900	5941
2901	5941
2902	5941
2903	5941
2905	5941
2907	5941
2910	5941
2913	5941
2917	5941
2921	5941
2925	5941
2930	5941
2935	5940
2941	5940
2946	5940
2952	5940
2958	5940
2965	5940
2971	5940
2977	5940
2982	5940
2988	5940
2993	5940
2998	5940
3002	5940
3006	5940
3009	5940
3012	5940
3013	5940
3014	5940
3015	5939
3014	5939
3013	5939
3011	5939
3008	5939
3004	5939
3000	5939
2995	5939
2990	5939
2984	5939
2978	5939
2971	5939
2964	5939
2957	5939
2950	5939
2943	5939
2936	5939
2930	5939
2923	5939
2917	5939
2911	5939
2906	5939
2901	5939
2897	5939
2893	5939
2890	5939
2887	5939
2885	5939
2884	5939
2883	5939
2883	5939
2883	5939
2884	5939
2885	5939
2886	5939
2888	5939
2889	5939
2891	5939
2894	5939
2896	5939
2898	5939
2900	5938
2902	5938
2904	5938
2906	5938
2908	5938
2910	5938
2911	5938
2912	5938
2913	5938
2914	5938
2914	5938
2915	5938
2915	5938
2915	5938
2915	5938
2915	5938
2914	5938
2914	5938
2914	5938
2913	5938
2913	5938
2912	5938
2912	5938
2911	5938
2911	5938
2910	5938
2910	5938
2910	5938
2910	5938
2910	5938
2910	5938
2910	5938
2910	5938
2910	5938
2910	5938
2911	5938
2911	5937
2911	5937
2912	5937
2912	5937
2913	5937
2913	5937
2914	5937
2914	5937
2915	5937
2915	5937
2916	5937
2916	5937
2917	5937
2917	5937
2918	5937
2918	5937
2918	5937
2919	5937
2919	5937
2920	5937
2920	5937
2921	5937
2921	5936
2921	5936
2922	5936
2922	5936
2922	5936
2922	5936
2923	5936
2923	5936
2923	5936
2923	5936
2923	5936
2924	5936
2924	5936
2924	5936
2924	5936
2924	5936
2924	5936
2924	5936
2924	5936
2924	5936
2925	5936
2925	5936
2925	5936
2925	5936
2925	5936
2925	5936
2925	5936
2925	5936
2925	5936
2925	5936
2925	5936
2925	5936
2925	5936
2925	5936
2926	5936
2926	5936
2926	5936
2926	5936
2926	5936
2926	5936
2926	5936
2926	5936
2927	5935
2927	5935
2927	5935
2927	5935
2928	5935
2928	5935
2928	5935
2929	5935
2929	5935
2930	5935
2930	5935
2931	5935
2931	5935
2932	5935
2933	5935
2933	5935
2934	5935
2934	5935
2935	5935
2936	5935
2936	5935
2937	5935
2938	5935
2938	5935
2939	5935
2940	5935
2940	5935
2941	5935
2941	5935
2942	5935
2942	5935
2943	5935
2943	5935
2944	5935
2944	5935
2945	5935
2945	5935
2945	5935
2946	5935
2946	5935
2946	5935
2946	5935
2947	5935
2947	5935
2947	5935
2948	5935
2948	5935
2948	5935
2949	5935
2949	5935
2949	5935
2950	5935
2950	5935
2951	5935
2951	5935
2952	5936
2952	5936
2953	5936
2953	5936
2954	5936
2955	5936
2955	5936
2956	5936
2957	5936
2958	5936
2958	5936
2959	5937
2960	5937
2961	5937
2962	5937
2962	5937
2963	5937
2964	5937
2965	5937
2965	5938
2966	5938
2967	5938
2967	5938
2968	5938
2968	5938
2969	5938
2969	5938
2970	5939
2970	5939
2970	5939
2970	5939
2970	5939
2971	5939
2971	5939
2970	5940
2970	5940
2970	5940
2970	5940
2970	5940
2969	5940
2969	5941
2969	5941
2968	5941
2968	5941
2967	5941
2967	5941
2966	5942
2966	5942
2965	5942
2965	5942
2964	5942
2963	5942
2963	5943
2962	5943
2962	5943
2961	5943
2961	5943
2960	5943
2960	5943
2960	5944
2959	5944
2959	5944
2958	5944
2958	5944
2957	5944
2957	5945
2956	5945
2955	5945
2955	5945
2954	5945
2953	5945
2953	5946
2952	5946
2951	5946
2950	5946
2949	5946
2948	5947
2947	5947
2946	5947
2944	5947
2943	5947
2942	5948
2940	5948
2939	5948
2938	5948
2936	5948
2935	5948
2933	5949
2932	5949
2930	5949
2929	5949
2928	5949
2926	5949
2925	5950
2924	5950
2922	5950
2921	5950
2920	5950
2918	5950
2917	5950
2916	5951
2915	5951
2914	5951
2913	5951
2912	5951
2911	5951
2910	5951
2909	5951
2909	5952
2908	5952
2907	5952
2906	5952
2906	5952
2905	5952
2904	5953
2904	5953
2903	5953
2903	5953
2902	5953
2902	5953
2902	5953
2901	5954
2901	5954
2901	5954
2900	5954
2900	5954
2900	5954
2900	5954
2899	5955
2899	5955
2899	5955
2899	5955
2899	5955
2899	5955
2899	5955
2899	5955
2898	5956
2898	5956
2898	5956
2898	5956
2898	5956
2898	5956
2898	5956
2898	5956
2899	5956
2899	5956
2899	5956
2899	5956
2899	5957
2899	5957
2899	5957
2899	5957
2899	5957
2899	5957
2899	5957
2899	5957
2899	5957
2899	5957
2899	5958
2899	5958
2899	5958
2899	5958
2899	5958
2899	5958
2899	5958
2899	5958
2898	5958
2898	5958
2898	5958
2898	5959
2898	5959
2898	5959
2897	5959
2897	5959
2897	5959
2897	5959
2897	5959
2897	5959
2897	5959
2897	5959
2897	5959
2897	5959
2897	5959
2898	5959
2898	5959
2898	5959
2898	5959
2898	5959
2899	5960
2899	5960
2899	5960
2899	5960
2899	5960
2900	5960
2900	5960
2900	5960
2900	5960
2900	5960
2900	5960
2900	5960
2900	5960
2900	5960
2901	5960
2901	5960
2901	5960
2901	5961
2901	5961
2901	5961
2901	5961
2901	5961
2901	5961
2901	5961
2901	5961
2901	5961
2901	5961
2901	5961
2902	5961
2902	5961
2902	5961
2902	5961
2902	5961
2903	5961
2903	5961
2903	5961
2903	5961
2904	5961
2904	5961
2904	5961
2904	5961
2904	5961
2905	5961
2905	5961
2905	5961
2905	5961
2905	5961
2905	5961
2905	5961
2905	5961
2905	5961
2905	5961
2905	5961
2905	5961
2905	5961
2905	5961
2905	5961
2905	5961
2905	5961
2905	5961
2904	5961
2904	5961
2904	5961
2904	5961
2904	5961
2904	5961
2904	5961
2904	5961
2904	5961
2904	5961
2904	5961
2904	5961
2904	5961
2904	5961
2904	5961
2904	5961
2904	5961
2904	5961
2905	5961
2905	5961
2905	5961
2905	5961
2905	5961
2905	5961
2906	5961
2906	5960
2906	5960
2906	5960
2906	5960
2906	5960
2906	5960
2906	5960
2906	5960
2906	5960
2906	5960
2906	5960
2906	5960
2906	5960
2906	5960
2906	5960
2906	5960
2906	5960
2906	5960
2906	5960
2906	5960
2906	5960
2906	5960
2906	5960
2906	5960
2906	5960
2906	5959
2906	5959
2906	5959
2906	5959
2906	5959
2906	5959
2907	5959
2907	5959
2907	5959
2907	5959
2907	5959
2907	5959
2907	5959
2906	5959
2906	5959
2906	5958
2906	5958
2906	5958
2906	5958
2906	5958
2906	5958
2906	5958
2906	5958
2906	5958
2906	5958
2906	5958
2906	5958
2906	5958
2906	5958
2906	5958
2906	5958
2906	5958
2906	5958
2906	5958
2906	5958
2906	5958
2907	5958
2907	5958
2907	5958
2907	5958
2907	5958
2907	5958
2908	5958
2908	5958
2908	5958
2908	5958
2908	5958
2908	5958
2908	5958
2908	5958
2908	5958
2908	5958
2908	5958
2908	5958
2908	5958
2907	5958
2907	5958
2907	5958
2907	5958
2906	5958
2906	5958
2906	5958
2906	5958
2905	5958
2905	5958
2905	5958
2905	5958
2905	5958
2904	5958
2904	5958
2904	5958
2904	5958
2904	5958
2904	5958
2905	5958
2905	5957
2905	5957
2905	5957
2905	5957
2906	5957
2906	5957
2906	5957
2907	5957
2907	5957
2907	5957
2907	5957
2908	5957
2908	5957
2908	5957
2908	5957
2908	5957
2908	5957
2908	5957
2908	5957
2908	5957
2908	5957
2908	5957
2908	5957
2908	5957
2908	5957
2907	5957
2907	5957
2907	5957
2907	5956
2907	5956
2907	5956
2907	5956
2907	5956
2907	5956
2907	5956
2907	5956
2907	5956
2907	5956
2907	5956
2908	5956
2908	5956
2908	5956
2909	5956
2909	5956
2910	5956
2910	5956
2910	5955
2911	5955
2911	5955
2911	5955
2911	5955
2912	5955
2912	5955
2912	5955
2912	5955
2912	5955
2912	5955
2912	5955
2912	5955
2912	5955
2912	5955
2912	5955
2912	5955
2912	5955
2912	5955
2912	5955
2911	5955
2911	5955
2911	5955
2911	5955
2911	5955
2911	5954
2911	5954
2911	5954
2911	5954
2911	5954
2911	5954
2911	5954
2911	5954
2911	5954
2911	5954
2911	5954
2911	5954
2911	5954
2911	5954
2911	5954
2911	5954
2911	5954
2912	5953
2912	5953
2912	5953
2912	5953
2912	5953
2912	5953
2913	5953
2913	5953
2913	5953
2913	5953
2913	5953
2914	5953
2914	5953
2914	5953
2915	5953
2915	5953
2915	5952
2915	5952
2916	5952
2916	5952
2916	5952
2916	5952
2917	5952
2917	5952
2917	5952
2917	5952
2917	5952
2917	5952
2918	5952
2918	5952
2918	5952
2918	5952
2917	5952
2917	5952
2917	5952
2917	5952
2917	5952
2917	5952
2916	5952
2916	5952
2916	5952
2915	5952
2915	5951
2915	5951
2914	5951
2914	5951
2914	5951
2914	5951
2913	5951
2913	5951
2913	5951
2913	5951
2913	5951
2913	5951
2913	5951
2913	5951
2913	5951
2913	5951
2913	5951
2914	5950
2914	5950
2914	5950
2915	5950
2915	5950
2916	5950
2916	5950
2917	5950
2917	5950
2918	5950
2918	5950
2919	5950
2919	5950
2920	5950
2920	5950
2920	5949
2921	5949
2921	5949
2921	5949
2922	5949
2922	5949
2922	5949
2922	5949
2922	5949
2922	5949
2923	5949
2923	5949
2923	5949
2923	5949
2923	5949
2923	5949
2923	5949
2923	5949
2923	5949
2923	5949
2923	5948
2923	5948
2923	5948
2923	5948
2923	5948
2923	5948
2924	5948
2924	5948
2924	5948
2924	5948
2924	5948
2924	5948
2924	5948
2924	5948
2924	5948
2924	5948
2923	5947
2923	5947
2923	5947
2923	5947
2923	5947
2923	5947
2922	5947
2922	5947
2922	5947
2922	5947
2922	5947
2921	5947
2921	5947
2921	5947
2920	5947
2920	5947
2920	5946
2919	5946
2919	5946
2918	5946
2918	5946
2918	5946
2917	5946
2917	5946
2916	5946
2916	5946
2915	5946
2915	5946
2914	5946
2914	5946
2913	5946
2913	5946
2912	5946
2912	5946
2912	5946
2911	5946
2911	5946
2911	5946
2911	5946
2911	5946
2911	5945
2911	5945
2911	5945
2912	5945
2912	5945
2912	5945
2913	5945
2913	5945
2914	5945
2914	5945
2915	5945
2915	5945
2916	5945
2917	5945
2917	5945
2918	5945
2918	5945
2919	5945
2919	5944
2920	5944
2920	5944
2920	5944
2920	5944
2921	5944
2921	5944
2921	5944
2921	5944
2920	5944
2920	5944
2920	5944
2919	5944
2919	5944
2918	5944
2917	5944
2917	5944
2916	5944
2914	5943
2913	5943
2912	5943
2911	5943
2910	5943
2908	5943
2907	5943
2906	5943
2905	5943
2903	5943
2903	5943
2902	5943
2901	5943
2901	5943
2901	5943
2901	5943
2902	5943
2903	5943
2904	5943
2906	5943
2909	5943
2912	5943
2915	5942
2919	5942
2923	5942
2927	5942
2932	5942
2938	5942
2943	5942
2949	5942
2955	5942
2962	5942
2968	5942
2974	5942
2980	5942
2986	5942
2992	5942
2997	5942
3002	5942
3006	5942
3010	5942
3013	5942
3016	5942
3017	5942
3018	5942
3019	5942
3018	5942
3017	5942
3015	5941
3012	5941
3008	5941
3004	5941
2999	5941
2994	5941
2988	5941
2981	5941
2975	5941
2968	5941
2961	5941
2953	5941
2946	5941
2939	5941
2932	5941
2925	5941
2919	5941
2913	5941
2907	5941
2902	5941
2897	5941
2893	5941
2890	5941
2887	5941
2885	5941
2883	5941
2882	5941
2881	5941
2881	5941
2881	5941
2882	5941
2883	5940
2884	5940
2886	5940
2888	5940
2890	5940
2892	5940
2894	5940
2897	5940
2899	5940
2901	5940
2904	5940
2906	5940
2908	5940
2909	5940
2911	5940
2913	5940
2914	5940
2915	5940
2916	5939
2916	5939
2917	5939
2917	5939
2918	5939
2918	5939
2918	5939
2917	5939
2917	5939
2917	5939
2917	5939
2916	5939
2916	5939
2916	5939
2915	5939
2915	5939
2915	5939
2915	5939
2914	5939
2914	5939
2914	5939
2914	5939
2914	5939
2914	5939
2914	5939
2915	5939
2915	5939
2915	5939
2915	5939
2915	5939
2916	5938
2916	5938
2916	5938
2917	5938
2917	5938
2917	5938
2918	5938
2918	5938
2918	5938
2919	5938
2919	5938
2920	5938
2920	5938
2920	5938
2921	5938
2921	5938
2922	5938
2922	5938
2922	5938
2923	5938
2923	5937
2923	5937
2924	5937
2924	5937
2924	5937
2924	5937
2925	5937
2925	5937
2925	5937
2925	5937
2925	5937
2925	5937
2925	5937
2925	5937
2925	5937
2925	5937
2925	5937
2925	5937
2925	5937
2925	5937
2925	5937
2925	5937
2925	5937
2925	5937
2925	5937
2925	5937
2925	5937
2926	5937
2926	5937
2926	5937
2926	5937
2926	5937
2926	5937
2927	5937
2927	5936
2927	5936
2927	5936
2928	5936
2928	5936
2928	5936
2929	5936
2929	5936
2929	5936
2930	5936
2930	5936
2930	5936
2931	5936
2931	5936
2931	5936
2932	5936
2932	5936
2932	5936
2933	5936
2933	5936
2934	5936
2934	5936
2935	5936
2935	5936
2936	5935
2936	5935
2937	5935
2937	5935
2938	5935
2938	5935
2939	5935
2939	5935
2940	5935
2941	5935
2941	5935
2942	5935
2942	5935
2943	5935
2943	5935
2944	5935
2945	5935
2945	5935
2946	5935
2946	5935
2947	5935
2947	5935
2948	5935
2949	5935
2949	5935
2950	5935
2950	5935
2951	5935
2952	5935
2952	5936
2953	5936
2954	5936
2954	5936
2955	5936
2956	5936
2956	5936
2957	5936
2958	5936
2958	5936
2959	5936
2959	5936
2960	5936
2960	5937
2961	5937
2962	5937
2962	5937
2962	5937
2963	5937
2963	5937
2964	5937
2964	5937
2964	5937
2965	5937
2965	5937
2965	5937
2965	5938
2965	5938
2966	5938
2966	5938
2966	5938
2966	5938
2966	5938
2966	5938
2966	5938
2967	5939
2967	5939
2967	5939
2967	5939
2967	5939
2967	5939
2967	5939
2967	5940
2967	5940
2968	5940
2968	5940
2968	5940
2968	5940
2968	5940
2968	5941
2968	5941
2968	5941
2968	5941
2968	5941
2968	5941
2968	5942
2968	5942
2967	5942
2967	5942
2967	5942
2967	5942
2966	5942
2966	5943
2965	5943
2965	5943
2964	5943
2964	5943
2963	5943
2962	5944
2961	5944
2961	5944
2960	5944
2959	5944
2958	5944
2957	5944
2956	5945
2955	5945
2954	5945
2953	5945
2952	5945
2950	5946
2949	5946
2948	5946
2947	5946
2946	5946
2945	5946
2944	5947
2943	5947
2941	5947
2940	5947
2939	5947
2938	5947
2937	5948
2936	5948
2935	5948
2933	5948
2932	5948
2931	5948
2930	5948
2929	5949
2928	5949
2926	5949
2925	5949
2924	5949
2923	5949
2922	5949
2920	5950
2919	5950
2918	5950
2917	5950
2916	5950
2915	5950
2914	5950
2913	5950
2912	5951
2911	5951
2910	5951
2909	5951
2908	5951
2907	5951
2906	5951
2905	5951
2904	5951
2904	5952
2903	5952
2902	5952
2902	5952
2901	5952
2901	5952
2900	5952
2900	5952
2899	5953
2899	5953
2898	5953
2898	5953
2897	5953
2897	5953
2897	5953
2896	5953
2896	5953
2896	5954
2895	5954
2895	5954
2895	5954
2895	5954
2895	5954
2895	5954
2895	5954
2895	5954
2895	5954
2895	5954
2895	5954
2895	5954
2895	5954
2895	5954
2895	5955
2895	5955
2895	5955
2896	5955
2896	5955
2896	5955
2896	5955
2896	5955
2896	5955
2896	5955
2896	5955
2896	5955
2896	5955
2896	5955
2896	5955
2896	5956
2895	5956
2895	5956
2895	5956
2895	5956
2895	5956
2895	5956
2895	5956
2895	5956
2895	5956
2895	5957
2896	5957
2896	5957
2896	5957
2896	5957
2897	5957
2897	5957
2897	5957
2898	5957
2898	5957
2898	5958
2899	5958
2899	5958
2899	5958
2900	5958
2900	5958
2900	5958
2901	5958
2901	5958
2901	5958
2901	5958
2901	5958
2901	5958
2901	5958
2901	5958
2901	5958
2901	5958
2901	5958
2901	5958
2901	5958
2901	5958
2901	5958
2901	5958
2901	5958
2901	5958
2901	5958
2901	5958
2901	5958
2901	5958
2901	5958
2901	5958
2901	5958
2901	5959
2901	5959
2901	5959
2901	5959
2901	5959
2901	5959
2901	5959
2901	5959
2901	5959
2901	5959
2901	5959
2902	5959
2902	5959
2902	5959
2902	5959
2902	5959
2902	5959
2902	5959
2902	5959
2902	5959
2902	5959
2902	5959
2903	5959
2903	5959
2903	5959
2903	5959
2903	5959
2904	5959
2904	5959
2904	5959
2904	5959
2904	5958
2905	5958
2905	5958
2905	5958
2905	5958
2906	5958
2906	5958
2906	5958
2906	5958
2906	5958
2906	5958
2906	5958
2906	5958
2906	5958
2906	5958
2906	5958
2906	5958
2906	5958
2906	5958
2906	5958
2906	5958
2906	5958
2906	5958
2905	5958
2905	5958
2905	5958
2905	5958
2905	5958
2905	5958
2905	5958
2905	5958
2904	5958
2904	5958
2904	5958
2904	5958
2904	5958
2904	5958
2904	5958
2904	5958
2904	5958
2904	5958
2904	5958
2904	5958
2904	5958
2904	5958
2904	5958
2904	5958
2904	5958
2904	5958
2904	5958
2904	5958
2905	5958
2905	5957
2905	5957
2905	5957
2905	5957
2905	5957
2905	5957
2905	5957
2905	5957
2906	5957
2906	5957
2906	5957
2906	5957
2906	5957
2906	5957
2907	5957
2907	5957
2907	5957
2907	5957
2907	5957
2907	5957
2907	5957
2907	5957
2907	5957
2907	5957
2908	5957
2908	5957
2908	5957
2908	5957
2908	5957
2908	5957
2908	5956
2908	5956
2908	5956
2908	5956
2908	5956
2908	5956
2908	5956
2908	5956
2908	5956
2908	5956
2908	5956
2908	5956
2908	5956
2907	5956
2907	5956
2907	5956
2907	5956
2907	5956
2907	5956
2906	5956
2906	5956
2906	5956
2906	5956
2906	5956
2905	5956
2905	5956
2905	5956
2905	5956
2905	5955
2904	5955
2904	5955
2904	5955
2904	5955
2904	5955
2904	5955
2904	5955
2905	5955
2905	5955
2905	5955
2905	5955
2905	5955
2906	5955
2906	5955
2906	5955
2906	5955
2907	5955
2907	5955
2907	5955
2907	5955
2907	5955
2908	5955
2908	5955
2908	5955
2908	5955
2908	5955
2908	5955
2908	5955
2908	5955
2908	5955
2908	5955
2908	5955
2908	5955
2908	5954
2908	5954
2908	5954
2908	5954
2908	5954
2908	5954
2908	5954
2909	5954
2909	5954
2909	5954
2909	5954
2909	5954
2909	5954
2909	5954
2909	5954
2910	5954
2910	5954
2910	5954
2910	5954
2910	5954
2910	5954
2910	5954
2910	5954
2910	5954
2910	5954
2910	5954
2910	5954
2909	5953
2909	5953
2909	5953
2909	5953
2909	5953
2909	5953
2909	5953
2909	5953
2909	5953
2909	5953
2909	5953
2909	5953
2909	5953
2909	5953
2909	5953
2909	5953
2909	5953
2910	5952
2910	5952
2910	5952
2910	5952
2910	5952
2910	5952
2910	5952
2910	5952
2910	5952
2910	5952
2910	5952
2910	5952
2910	5952
2910	5952
2910	5952
2910	5952
2910	5952
2910	5951
2910	5951
2910	5951
2910	5951
2910	5951
2910	5951
2909	5951
2909	5951
2909	5951
2909	5951
2909	5951
2909	5951
2909	5951
2908	5951
2908	5951
2908	5951
2908	5951
2908	5951
2908	5951
2908	5951
2908	5950
2908	5950
2908	5950
2908	5950
2908	5950
2908	5950
2908	5950
2908	5950
2908	5950
2908	5950
2908	5950
2908	5950
2908	5950
2909	5950
2909	5950
2909	5949
2910	5949
2910	5949
2910	5949
2911	5949
2911	5949
2911	5949
2912	5949
2912	5949
2912	5949
2913	5949
2913	5949
2913	5949
2914	5949
2914	5949
2914	5949
2915	5949
2915	5949
2916	5949
2916	5949
2916	5949
2917	5949
2917	5949
2917	5948
2918	5948
2918	5948
2919	5948
2919	5948
2919	5948
2920	5948
2920	5948
2920	5948
2921	5948
2921	5948
2921	5947
2921	5947
2922	5947
2922	5947
2922	5947
2922	5947
2922	5947
2922	5947
2922	5947
2922	5947
2921	5947
2921	5947
2921	5947
2920	5947
2920	5947
2920	5947
2919	5947
2919	5947
2918	5947
2918	5947
2917	5947
2917	5947
2916	5947
2916	5947
2915	5947
2915	5947
2914	5947
2914	5947
2914	5947
2913	5947
2913	5947
2913	5947
2913	5947
2912	5946
2912	5946
2912	5946
2912	5946
2912	5946
2912	5946
2912	5946
2912	5946
2912	5946
2912	5946
2912	5946
2912	5946
2911	5945
2911	5945
2911	5945
2911	5945
2911	5945
2911	5945
2911	5945
2911	5945
2910	5945
2910	5945
2910	5945
2910	5945
2910	5945
2910	5945
2910	5945
2910	5945
2910	5945
2910	5945
2910	5945
2910	5945
2910	5945
2910	5945
2910	5945
2911	5945
2911	5945
2911	5944
2911	5944
2912	5944
2912	5944
2912	5944
2913	5944
2913	5944
2913	5944
2914	5944
2914	5944
2914	5944
2914	5944
2914	5944
2914	5944
2914	5944
2914	5944
2914	5944
2913	5944
2913	5944
2912	5944
2912	5944
2911	5944
2910	5944
2909	5944
2908	5943
2907	5943
2906	5943
2905	5943
2904	5943
2902	5943
2901	5943
2900	5943
2899	5943
2898	5943
2898	5943
2897	5943
2897	5943
2897	5943
2897	5942
2897	5942
2898	5942
2899	5942
2901	5942
2902	5942
2905	5942
2907	5942
2910	5942
2914	5942
2917	5942
2922	5942
2926	5942
2931	5942
2936	5942
2941	5942
2947	5942
2952	5942
2958	5942
2964	5942
2969	5942
2975	5942
2980	5942
2985	5941
2990	5941
2994	5941
2998	5941
3002	5941
3004	5941
3007	5941
3008	5941
3009	5941
3009	5941
3008	5941
3007	5941
3005	5941
3002	5940
2999	5940
2995	5940
2990	5940
2985	5940
2979	5940
2973	5940
2967	5940
2960	5940
2953	5940
2946	5940
2939	5940
2932	5940
2926	5940
2919	5940
2913	5939
2907	5939
2901	5939
2896	5939
2891	5939
2887	5939
2883	5939
2880	5939
2878	5939
2876	5939
2875	5939
2874	5939
2873	5940
2873	5940
2874	5940
2875	5940
2876	5940
2878	5940
2880	5940
2882	5940
2884	5940
2886	5940
2888	5940
2891	5940
2893	5940
2895	5940
2898	5940
2900	5940
2902	5939
2904	5939
2905	5939
2907	5939
2908	5939
2909	5939
2910	5939
2910	5939
2911	5939
2911	5939
2912	5939
2912	5939
2912	5939
2912	5939
2912	5939
2912	5939
2911	5939
2911	5939
2911	5939
2911	5939
2911	5939
2910	5939
2910	5939
2910	5939
2910	5939
2910	5939
2910	5938
2910	5938
2910	5938
2911	5938
2911	5938
2911	5938
2911	5938
2912	5938
2912	5938
2912	5938
2912	5938
2913	5938
2913	5938
2913	5938
2913	5938
2913	5938
2914	5938
2914	5938
2914	5938
2914	5938
2914	5938
2914	5938
2914	5938
2915	5938
2915	5938
2915	5938
2915	5938
2915	5938
2915	5938
2915	5938
2916	5938
2916	5938
2916	5938
2917	5938
2917	5938
2917	5938
2918	5938
2918	5938
2918	5938
2919	5938
2919	5938
2920	5938
2920	5938
2920	5938
2921	5938
2921	5938
2921	5938
2922	5938
2922	5938
2922	5938
2922	5938
2922	5938
2922	5938
2922	5938
2922	5938
2922	5937
2922	5937
2922	5937
2922	5937
2922	5937
2923	5937
2923	5937
2923	5937
2923	5937
2923	5937
2923	5937
2923	5937
2924	5937
2924	5937
2924	5937
2924	5937
2925	5937
2925	5937
2926	5937
2926	5937
2926	5937
2927	5937
2927	5937
2928	5936
2928	5936
2928	5936
2929	5936
2929	5936
2929	5936
2929	5936
2930	5936
2930	5936
2930	5936
2930	5936
2931	5936
2931	5936
2931	5936
2931	5936
2931	5936
2932	5936
2932	5936
2932	5936
2933	5936
2933	5936
2934	5937
2934	5937
2935	5937
2935	5937
2936	5937
2936	5937
2937	5937
2938	5937
2939	5937
2940	5937
2940	5937
2941	5937
2942	5937
2943	5937
2944	5937
2945	5937
2946	5937
2947	5937
2947	5937
2948	5937
2949	5937
2950	5937
2951	5937
2951	5937
2952	5937
2953	5937
2954	5937
2954	5937
2955	5937
2956	5938
2956	5938
2957	5938
2957	5938
2958	5938
2958	5938
2959	5938
2959	5938
2959	5938
2960	5939
2960	5939
2961	5939
2961	5939
2961	5939
2962	5939
2962	5939
2962	5940
2963	5940
2963	5940
2963	5940
2964	5940
2964	5940
2965	5940
2965	5941
2965	5941
2965	5941
2966	5941
2966	5941
2966	5941
2967	5941
2967	5942
2967	5942
2967	5942
2967	5942
2967	5942
2967	5942
2967	5943
2967	5943
2967	5943
2967	5943
2967	5943
2967	5943
2967	5944
2967	5944
2966	5944
2966	5944
2966	5944
2965	5945
2965	5945
2964	5945
2964	5945
2963	5945
2963	5945
2962	5946
2962	5946
2961	5946
2960	5946
2960	5946
2959	5947
2958	5947
2957	5947
2957	5947
2956	5947
2955	5947
2954	5948
2953	5948
2952	5948
2951	5948
2950	5948
2949	5948
2948	5948
2947	5949
2945	5949
2944	5949
2943	5949
2942	5949
2941	5949
2939	5949
2938	5950
2937	5950
2936	5950
2934	5950
2933	5950
2932	5950
2931	5950
2929	5951
2928	5951
2927	5951
2926	5951
2924	5951
2923	5951
2922	5952
2921	5952
2919	5952
2918	5952
2917	5952
2916	5952
2915	5952
2914	5953
2913	5953
2912	5953
2911	5953
2910	5953
2909	5953
2908	5953
2907	5954
2906	5954
2905	5954
2905	5954
2904	5954
2903	5954
2903	5954
2902	5954
2902	5955
2901	5955
2900	5955
2900	5955
2899	5955
2899	5955
2899	5955
2898	5955
2898	5956
2897	5956
2897	5956
2896	5956
2896	5956
2895	5956
2895	5956
2895	5956
2894	5956
2894	5957
2893	5957
2893	5957
2892	5957
2892	5957
2891	5957
2891	5957
2891	5957
2890	5957
2890	5958
2890	5958
2890	5958
2890	5958
2889	5958
2889	5958
2889	5958
2889	5958
2890	5958
2890	5959
2890	5959
2890	5959
2890	5959
2891	5959
2891	5959
2891	5959
2892	5959
2892	5959
2893	5960
2893	5960
2893	5960
2894	5960
2894	5960
2894	5960
2895	5960
2895	5960
2895	5960
2895	5960
2895	5960
2895	5960
2895	5960
2896	5960
2896	5961
2896	5961
2896	5961
2896	5961
2895	5961
2895	5961
2895	5961
2895	5961
2895	5961
2896	5961
2896	5961
2896	5961
2896	5961
2896	5961
2896	5961
2896	5961
2897	5961
2897	5961
2897	5961
2898	5961
2898	5961
2898	5961
2899	5961
2899	5961
2899	5961
2899	5961
2900	5961
2900	5961
2900	5961
2900	5961
2900	5961
2900	5962
2901	5962
2901	5962
2901	5962
2901	5962
2901	5962
2900	5962
2900	5962
2900	5962
2900	5962
2900	5962
2900	5962
2900	5962
2900	5962
2900	5962
2900	5962
2900	5962
2900	5962
2901	5962
2901	5962
2901	5963
2901	5963
2902	5963
2902	5963
2902	5963
2903	5963
2903	5963
2903	5963
2904	5962
2904	5962
2905	5962
2905	5962
2905	5962
2906	5962
2906	5962
2906	5962
2906	5962
2907	5962
2907	5962
2907	5962
2907	5962
2907	5962
2907	5962
2908	5962
2908	5962
2908	5962
2908	5962
2908	5962
2908	5962
2908	5962
2908	5962
2908	5962
2908	5962
2907	5962
2907	5962
2907	5962
2907	5962
2907	5962
2907	5962
2907	5962
2906	5962
2906	5962
2906	5962
2906	5962
2906	5962
2906	5962
2905	5962
2905	5962
2905	5962
2905	5962
2905	5962
2905	5962
2905	5962
2905	5962
2905	5962
2905	5962
2905	5962
2905	5962
2905	5962
2905	5962
2905	5962
2905	5962
2905	5962
2905	5962
2905	5962
2906	5962
2906	5961
2906	5961
2906	5961
2906	5961
2906	5961
2906	5961
2907	5961
2907	5961
2907	5961
2907	5961
2907	5961
2907	5961
2907	5961
2908	5961
2908	5961
2908	5961
2908	5961
2908	5961
2908	5961
2908	5961
2909	5961
2909	5960
2909	5960
2909	5960
2909	5960
2909	5960
2909	5960
2909	5960
2909	5960
2909	5960
2909	5960
2909	5960
2909	5960
2909	5960
2909	5960
2909	5960
2908	5960
2908	5960
2908	5960
2908	5960
2908	5960
2908	5960
2907	5960
2907	5960
2907	5960
2907	5960
2907	5960
2907	5960
2907	5960
2907	5960
2907	5960
2907	5960
2907	5960
2907	5960
2907	5960
2907	5960
2907	5960
2908	5960
2908	5960
2908	5960
2908	5960
2909	5960
2909	5959
2909	5959
2909	5959
2910	5959
2910	5959
2910	5959
2910	5959
2910	5959
2910	5959
2910	5959
2910	5959
2910	5959
2910	5959
2910	5959
2910	5959
2909	5959
2909	5959
2909	5958
2909	5958
2909	5958
2908	5958
2908	5958
2908	5958
2908	5958
2908	5958
2907	5958
2907	5958
2907	5958
2907	5958
2907	5958
2907	5958
2907	5958
2907	5958
2908	5958
2908	5958
2908	5958
2908	5958
2909	5958
2909	5958
2909	5958
2910	5958
2910	5958
2910	5958
2911	5958
2911	5958
2911	5958
2912	5958
2912	5958
2912	5958
2912	5958
2913	5958
2913	5958
2913	5958
2913	5958
2913	5958
2913	5958
2913	5958
2914	5957
2914	5957
2914	5957
2914	5957
2914	5957
2914	5957
2914	5957
2913	5957
2913	5957
2913	5957
2913	5957
2913	5957
2913	5957
2913	5957
2912	5957
2912	5957
2912	5956
2912	5956
2912	5956
2911	5956
2911	5956
2911	5956
2911	5956
2911	5956
2910	5956
2910	5956
2910	5956
2910	5956
2910	5956
2910	5956
2910	5956
2910	5956
2910	5956
2910	5956
2910	5956
2910	5956
2910	5956
2910	5956
2910	5955
2911	5955
2911	5955
2911	5955
2911	5955
2912	5955
2912	5955
2912	5955
2913	5955
2913	5955
2913	5955
2913	5955
2913	5955
2914	5955
2914	5955
2914	5955
2914	5955
2914	5955
2914	5955
2914	5955
2914	5955
2914	5954
2914	5954
2913	5954
2913	5954
2913	5954
2913	5954
2913	5954
2912	5954
2912	5954
2912	5954
2912	5954
2911	5954
2911	5954
2911	5954
2911	5954
2911	5954
2911	5953
2911	5953
2911	5953
2911	5953
2911	5953
2911	5953
2911	5953
2911	5953
2912	5953
2912	5953
2912	5953
2912	5952
2913	5952
2913	5952
2913	5952
2913	5952
2914	5952
2914	5952
2914	5952
2914	5952
2914	5952
2915	5952
2915	5952
2915	5952
2915	5952
2915	5952
2915	5951
2915	5951
2915	5951
2915	5951
2915	5951
2915	5951
2915	5951
2915	5951
2915	5951
2915	5951
2915	5951
2915	5951
2915	5951
2915	5951
2915	5951
2915	5951
2915	5951
2915	5951
2915	5951
2915	5951
2915	5951
2915	5950
2916	5950
2916	5950
2916	5950
2916	5950
2916	5950
2916	5950
2916	5950
2916	5950
2916	5950
2916	5950
2916	5950
2917	5950
2917	5950
2917	5949
2917	5949
2917	5949
2917	5949
2918	5949
2918	5949
2918	5949
2918	5949
2919	5949
2919	5949
2919	5949
2920	5949
2920	5949
2921	5949
2921	5949
2921	5949
2922	5949
2922	5949
2923	5949
2923	5949
2923	5949
2924	5949
2924	5949
2924	5949
2925	5949
2925	5948
2925	5948
2925	5948
2925	5948
2925	5948
2925	5948
2925	5948
2925	5948
2925	5948
2924	5948
2924	5948
2924	5948
2923	5948
2923	5948
2923	5948
2922	5948
2922	5947
2921	5947
2921	5947
2920	5947
2920	5947
2919	5947
2919	5947
2918	5947
2918	5947
2917	5947
2917	5947
2916	5947
2916	5947
2916	5947
2915	5946
2915	5946
2914	5946
2914	5946
2913	5946
2913	5946
2913	5946
2912	5946
2912	5946
2912	5946
2912	5946
2911	5946
2911	5946
2911	5946
2911	5946
2911	5946
2911	5946
2911	5946
2911	5946
2911	5946
2912	5946
2912	5946
2912	5946
2912	5945
2913	5945
2913	5945
2914	5945
2914	5945
2914	5945
2915	5945
2915	5945
2916	5945
2916	5945
2917	5945
2917	5945
2917	5945
2918	5944
2918	5944
2918	5944
2918	5944
2918	5944
2918	5944
2918	5944
2918	5944
2918	5944
2918	5944
2917	5944
2917	5943
2916	5943
2915	5943
2914	5943
2913	5943
2912	5943
2911	5943
2910	5943
2909	5943
2908	5943
2907	5943
2906	5943
2905	5943
2904	5943
2903	5943
2902	5943
2902	5943
2901	5943
2901	5943
2902	5943
2902	5943
2903	5943
2905	5943
2907	5943
2909	5943
2912	5943
2915	5943
2918	5943
2922	5943
2927	5943
2931	5943
2936	5943
2942	5943
2947	5943
2953	5943
2959	5943
2965	5943
2971	5943
2977	5943
2983	5943
2989	5943
2994	5943
2999	5943
3004	5943
3008	5943
3011	5943
3014	5943
3016	5943
3017	5942
3018	5942
3018	5942
3017	5942
3015	5942
3012	5942
3009	5942
3005	5942
3001	5942
2996	5942
2990	5942
2984	5942
2978	5942
2971	5942
2964	5941
2957	5941
2950	5941
2943	5941
2936	5941
2930	5941
2923	5941
2917	5941
2912	5941
2907	5941
2902	5941
2898	5941
2894	5941
2891	5941
2889	5941
2887	5941
2885	5941
2884	5941
2884	5940
2884	5940
2884	5940
2885	5940
2886	5940
2887	5940
2889	5940
2891	5940
2892	5940
2894	5940
2896	5940
2898	5940
2900	5940
2902	5940
2904	5940
2905	5940
2907	5940
2908	5940
2910	5940
2911	5940
2912	5940
2913	5940
2914	5940
2914	5940
2915	5940
2915	5940
2916	5940
2916	5940
2916	5940
2916	5940
2916	5940
2917	5940
2917	5940
2917	5940
2917	5940
2917	5939
2917	5939
2917	5939
2917	5939
2917	5939
2917	5939
2917	5939
2916	5939
2916	5939
2916	5939
2916	5939
2916	5939
2916	5939
2916	5939
2916	5939
2916	5939
2916	5939
2916	5939
2916	5939
2916	5939
2916	5939
2916	5939
2916	5939
2916	5939
2916	5939
2916	5939
2917	5939
2917	5938
2917	5938
2917	5938
2918	5938
2918	5938
2918	5938
2919	5938
2919	5938
2919	5938
2920	5938
2920	5938
2920	5938
2921	5938
2921	5938
2921	5938
2921	5938
2921	5938
2922	5938
2922	5938
2922	5938
2922	5938
2922	5938
2923	5938
2923	5938
2923	5938
2923	5938
2923	5938
2924	5938
2924	5938
2924	5938
2924	5937
2925	5937
2925	5937
2925	5937
2926	5937
2926	5937
2927	5937
2927	5937
2928	5937
2928	5937
2928	5937
2929	5937
2929	5937
2930	5937
2930	5936
2930	5936
2931	5936
2931	5936
2931	5936
2932	5936
2932	5936
2932	5936
2932	5936
2933	5936
2933	5936
2933	5936
2933	5936
2933	5936
2934	5936
2934	5936
2934	5936
2934	5936
2934	5936
2935	5936
2935	5936
2935	5936
2936	5936
2936	5936
2936	5936
2937	5936
2937	5936
2937	5936
2938	5936
2938	5936
2939	5936
2939	5936
2939	5936
2940	5936
2940	5936
2941	5936
2941	5936
2942	5935
2942	5935
2943	5935
2943	5935
2943	5935
2944	5935
2944	5935
2945	5935
2945	5935
2946	5936
2947	5936
2947	5936
2948	5936
2948	5936
2949	5936
2949	5936
2950	5936
2951	5936
2951	5936
2952	5936
2952	5936
2953	5936
2954	5936
2954	5936
2955	5936
2956	5937
2956	5937
2957	5937
2958	5937
2958	5937
2959	5937
2960	5937
2960	5937
2961	5937
2962	5937
2962	5938
2963	5938
2963	5938
2964	5938
2965	5938
2965	5938
2966	5938
2966	5938
2967	5939
2967	5939
2968	5939
2968	5939
2969	5939
2969	5939
2970	5939
2970	5940
2971	5940
2971	5940
2971	5940
2972	5940
2972	5940
2972	5941
2973	5941
2973	5941
2973	5941
2974	5941
2974	5942
2974	5942
2974	5942
2974	5942
2974	5942
2974	5942
2974	5943
2974	5943
2974	5943
2974	5943
2974	5943
2974	5944
2973	5944
2973	5944
2973	5944
2972	5944
2971	5944
2971	5945
2970	5945
2969	5945
2969	5945
2968	5945
2967	5945
2966	5946
2965	5946
2964	5946
2963	5946
2962	5946
2961	5946
2960	5947
2959	5947
2957	5947
2956	5947
2955	5947
2954	5947
2953	5948
2952	5948
2951	5948
2950	5948
2949	5948
2948	5948
2947	5948
2946	5949
2945	5949
2943	5949
2942	5949
2941	5949
2940	5949
2939	5949
2938	5950
2937	5950
2935	5950
2934	5950
2933	5950
2931	5950
2930	5951
2929	5951
2927	5951
2926	5951
2925	5951
2923	5951
2922	5952
2921	5952
2920	5952
2918	5952
2917	5952
2916	5952
2915	5953
2914	5953
2913	5953
2912	5953
2911	5953
2910	5953
2909	5953
2908	5954
2908	5954
2907	5954
2906	5954
2906	5954
2905	5954
2904	5954
2904	5955
2903	5955
2902	5955
2902	5955
2901	5955
2901	5955
2900	5955
2900	5956
2899	5956
2899	5956
2898	5956
2898	5956
2897	5956
2897	5956
2896	5956
2896	5957
2896	5957
2895	5957
2895	5957
2895	5957
2895	5957
2895	5957
2895	5957
2895	5958
2895	5958
2895	5958
2895	5958
2895	5958
2895	5958
2895	5958
2895	5958
2895	5958
2895	5958
2895	5959
2895	5959
2895	5959
2895	5959
2896	5959
2896	5959
2896	5959
2896	5959
2896	5959
2896	5959
2896	5959
2896	5959
2896	5959
2896	5960
2896	5960
2896	5960
2896	5960
2896	5960
2896	5960
2896	5960
2896	5960
2897	5960
2897	5960
2897	5961
2897	5961
2898	5961
2898	5961
2898	5961
2899	5961
2899	5961
2899	5961
2900	5962
2900	5962
2900	5962
2901	5962
2901	5962
2901	5962
2902	5962
2902	5962
2902	5962
2902	5962
2902	5962
2902	5962
2902	5963
2902	5963
2902	5963
2902	5963
2902	5963
2902	5963
2902	5963
2901	5963
2901	5963
2901	5963
2901	5963
2901	5963
2901	5963
2900	5963
2900	5963
2900	5963
2900	5963
2900	5963
2900	5963
2900	5963
2900	5963
2900	5963
2900	5963
2900	5963
2900	5963
2900	5963
2900	5963
2901	5963
2901	5963
2901	5963
2901	5963
2902	5963
2902	5963
2902	5963
2902	5963
2902	5963
2903	5963
2903	5963
2903	5963
2903	5964
2903	5964
2904	5964
2904	5964
2904	5964
2904	5964
2904	5964
2904	5964
2904	5964
2904	5964
2905	5964
2905	5964
2905	5964
2905	5964
2905	5964
2905	5964
2905	5964
2905	5964
2905	5964
2905	5964
2906	5964
2906	5964
2906	5964
2906	5964
2906	5964
2906	5964
2906	5964
2906	5964
2906	5964
2907	5964
2907	5964
2907	5964
2907	5964
2907	5964
2907	5964
2907	5964
2907	5963
2906	5963
2906	5963
2906	5963
2906	5963
2906	5963
2906	5963
2906	5963
2906	5963
2906	5963
2906	5963
2906	5963
2906	5963
2906	5963
2906	5963
2906	5963
2906	5963
2906	5963
2906	5963
2906	5963
2906	5963
2907	5963
2907	5963
2907	5963
2907	5963
2907	5963
2907	5962
2908	5962
2908	5962
2908	5962
2908	5962
2908	5962
2908	5962
2908	5962
2908	5962
2908	5962
2908	5962
2908	5962
2908	5962
2908	5962
2908	5962
2908	5962
2907	5962
2907	5962
2907	5962
2907	5962
2907	5962
2907	5962
2907	5962
2907	5962
2906	5961
2906	5961
2906	5961
2906	5961
2906	5961
2906	5961
2906	5961
2907	5961
2907	5961
2907	5961
2907	5961
2907	5961
2907	5961
2908	5961
2908	5961
2908	5961
2908	5961
2908	5961
2909	5961
2909	5961
2909	5961
2909	5960
2909	5960
2910	5960
2910	5960
2910	5960
2910	5960
2910	5960
2910	5960
2910	5960
2910	5960
2910	5960
2910	5960
2910	5960
2910	5960
2910	5960
2910	5960
2910	5960
2910	5960
2910	5959
2910	5959
2910	5959
2909	5959
2909	5959
2909	5959
2909	5959
2910	5959
2910	5959
2910	5959
2910	5959
2910	5959
2910	5959
2910	5959
2910	5959
2910	5959
2910	5959
2910	5959
2910	5959
2910	5959
2910	5959
2910	5959
2910	5959
2910	5959
2911	5959
2911	5959
2911	5959
2911	5959
2911	5959
2911	5959
2911	5959
2911	5959
2911	5958
2911	5958
2911	5958
2911	5958
2911	5958
2911	5958
2911	5958
2911	5958
2911	5958
2910	5958
2910	5958
2910	5958
2910	5958
2910	5958
2910	5958
2910	5958
2909	5958
2909	5957
2909	5957
2909	5957
2909	5957
2909	5957
2908	5957
2908	5957
2908	5957
2908	5957
2908	5957
2908	5957
2908	5957
2908	5957
2908	5957
2908	5957
2908	5957
2908	5957
2909	5957
2909	5957
2909	5957
2909	5957
2909	5957
2909	5957
2910	5957
2910	5957
2910	5957
2910	5957
2910	5957
2910	5957
2911	5957
2911	5956
2911	5956
2911	5956
2911	5956
2911	5956
2911	5956
2911	5956
2911	5956
2911	5956
2911	5956
2911	5956
2911	5956
2911	5956
2911	5956
2911	5956
2911	5956
2911	5956
2911	5956
2911	5956
2911	5956
2911	5956
2911	5956
2911	5955
2911	5955
2911	5955
2910	5955
2910	5955
2910	5955
2910	5955
2910	5955
2910	5955
2910	5955
2910	5955
2909	5955
2909	5955
2909	5955
2909	5954
2909	5954
2909	5954
2909	5954
2909	5954
2908	5954
2908	5954
2908	5954
2908	5954
2908	5954
2908	5954
2908	5954
2908	5954
2908	5953
2908	5953
2908	5953
2908	5953
2908	5953
2908	5953
2908	5953
2908	5953
2908	5953
2907	5953
2907	5953
2907	5953
2907	5953
2907	5953
2907	5953
2907	5953
2907	5953
2907	5953
2907	5953
2907	5953
2907	5953
2908	5953
2908	5953
2908	5953
2908	5953
2909	5953
2909	5953
2909	5952
2910	5952
2910	5952
2911	5952
2911	5952
2911	5952
2912	5952
2912	5952
2913	5952
2913	5952
2913	5952
2914	5952
2914	5952
2914	5952
2914	5952
2914	5951
2914	5951
2914	5951
2914	5951
2914	5951
2913	5951
2913	5951
2913	5951
2913	5951
2913	5951
2912	5951
2912	5951
2912	5950
2912	5950
2912	5950
2912	5950
2912	5950
2912	5950
2912	5950
2913	5950
2913	5950
2913	5950
2914	5950
2914	5950
2915	5950
2916	5950
2916	5950
2917	5950
2918	5950
2918	5950
2919	5950
2920	5950
2921	5950
2921	5950
2922	5950
2922	5950
2923	5950
2923	5950
2924	5950
2924	5950
2925	5950
2925	5950
2925	5950
2925	5950
2925	5950
2925	5950
2925	5949
2925	5949
2925	5949
2925	5949
2925	5949
2925	5949
2925	5949
2925	5949
2924	5949
2924	5949
2924	5949
2924	5949
2923	5949
2923	5948
2922	5948
2922	5948
2922	5948
2921	5948
2920	5948
2920	5948
2919	5948
2919	5948
2918	5948
2918	5948
2917	5948
2916	5948
2916	5948
2915	5948
2915	5948
2914	5948
2913	5948
2913	5948
2912	5948
2912	5948
2912	5948
2911	5948
2911	5948
2911	5948
2911	5948
2910	5948
2910	5948
2910	5948
2910	5948
2910	5948
2910	5948
2910	5948
2911	5948
2911	5947
2911	5947
2911	5947
2911	5947
2912	5947
2912	5947
2912	5947
2912	5947
2913	5947
2913	5947
2913	5947
2914	5947
2914	5947
2914	5947
2915	5947
2915	5947
2915	5947
2916	5947
2916	5947
2916	5947
2916	5947
2917	5947
2917	5947
2917	5947
2917	5947
2917	5947
2917	5947
2916	5947
2916	5947
2916	5947
2915	5947
2914	5947
2913	5947
2913	5947
2912	5947
2910	5947
2909	5947
2908	5947
2907	5947
2906	5947
2905	5947
2904	5947
2903	5947
2903	5947
2902	5946
2902	5946
2902	5946
2903	5946
2904	5946
2905	5946
2907	5946
2909	5946
2911	5946
2914	5946
2918	5946
2922	5946
2926	5946
2931	5946
2936	5946
2941	5946
2947	5946
2953	5946
2959	5946
2965	5946
2971	5946
2977	5946
2983	5946
2989	5946
2994	5946
2999	5946
3004	5946
3008	5946
3011	5946
3014	5946
3016	5946
3018	5946
3018	5946
3018	5946
3017	5946
3015	5946
3013	5946
3010	5946
3006	5946
3001	5946
2996	5946
2991	5946
2985	5946
2978	5946
2971	5946
2964	5946
2957	5946
2950	5947
2943	5947
2936	5947
2929	5947
2922	5947
2916	5947
2910	5947
2905	5947
2900	5947
2895	5947
2891	5947
2888	5947
2885	5947
2882	5947
2881	5947
2879	5947
2879	5947
2879	5947
2879	5947
2879	5947
2880	5947
2882	5947
2884	5947
2885	5947
2887	5947
2890	5947
2892	5947
2894	5947
2896	5947
2899	5947
2901	5947
2903	5947
2905	5947
2906	5947
2908	5947
2909	5947
2911	5947
2912	5947
2912	5947
2913	5947
2913	5947
2914	5947
2914	5947
2914	5947
2914	5947
2914	5948
2913	5948
2913	5948
2913	5948
2912	5948
2912	5948
2912	5948
2911	5948
2911	5948
2911	5948
2910	5948
2910	5948
2910	5948
2910	5948
2910	5948
2911	5948
2911	5948
2911	5949
2911	5949
2912	5949
2912	5949
2913	5949
2913	5949
2913	5949
2914	5949
2914	5949
2915	5949
2915	5949
2915	5949
2916	5949
2916	5949
2916	5949
2917	5949
2917	5949
2917	5949
2917	5949
2918	5949
2918	5949
2918	5949
2918	5949
2918	5949
2918	5949
2919	5949
2919	5949
2919	5949
2919	5949
2919	5949
2920	5949
2920	5949
2920	5949
2921	5949
2921	5949
2921	5949
2922	5949
2922	5949
2922	5949
2923	5949
2923	5949
2923	5949
2924	5949
2924	5949
2925	5949
2925	5949
2925	5949
2926	5949
2926	5949
2926	5949
2927	5950
2927	5950
2927	5950
2927	5950
2928	5950
2928	5950
2928	5950
2928	5950
2929	5950
2929	5950
2929	5950
2929	5950
2929	5950
2929	5950
2929	5950
2930	5950
2930	5950
2930	5950
2930	5950
2930	5951
2930	5951
2930	5951
2930	5951
2930	5951
2930	5951
2930	5951
2930	5951
2930	5951
2930	5952
2930	5952
2930	5952
2930	5952
2931	5952
2931	5952
2931	5952
2931	5952
2931	5953
2932	5953
2932	5953
2932	5953
2933	5953
2933	5953
2934	5953
2934	5953
2935	5953
2936	5953
2936	5953
2937	5953
2938	5953
2938	5953
2939	5953
2940	5953
2941	5953
2942	5953
2942	5953
2943	5954
2944	5954
2945	5954
2945	5954
2946	5954
2947	5954
2948	5954
2948	5954
2949	5954
2949	5954
2950	5954
2951	5955
2951	5955
2952	5955
2952	5955
2953	5955
2953	5955
2954	5956
2954	5956
2954	5956
2955	5956
2955	5956
2956	5956
2956	5957
2957	5957
2957	5957
2958	5957
2958	5957
2959	5958
2959	5958
2960	5958
2960	5958
2961	5959
2961	5959
2962	5959
2962	5959
2963	5959
2963	5960
2964	5960
2964	5960
2965	5960
2965	5960
2965	5961
2966	5961
2966	5961
2966	5961
2967	5962
2967	5962
2967	5962
2967	5962
2967	5963
2967	5963
2967	5963
2967	5963
2967	5964
2967	5964
2966	5964
2966	5964
2966	5965
2966	5965
2965	5965
2965	5965
2965	5966
2964	5966
2964	5966
2963	5966
2963	5967
2963	5967
2962	5967
2962	5967
2961	5968
2960	5968
2960	5968
2959	5968
2958	5969
2958	5969
2957	5969
2956	5970
2955	5970
2954	5970
2953	5970
2952	5971
2951	5971
2950	5971
2949	5971
2948	5972
2947	5972
2945	5972
2944	5972
2943	5972
2942	5973
2941	5973
2939	5973
2938	5973
2937	5974
2936	5974
2934	5974
2933	5974
2932	5974
2931	5975
2929	5975
2928	5975
2926	5975
2925	5975
2924	5976
2922	5976
2921	5976
2919	5976
2918	5977
2916	5977
2915	5977
2913	5977
2912	5977
2910	5978
2908	5978
2907	5978
2905	5978
2904	5979
2902	5979
2901	5979
2899	5979
2898	5979
2896	5980
2895	5980
2894	5980
2892	5980
2891	5980
2890	5981
2889	5981
2888	5981
2887	5981
2886	5981
2886	5981
2885	5982
2884	5982
2884	5982
2883	5982
2883	5982
2882	5983
2882	5983
2882	5983
2881	5983
2881	5983
2881	5983
2881	5984
2881	5984
2881	5984
2881	5984
2880	5984
2880	5985
2880	5985
2881	5985
2881	5985
2881	5985
2881	5985
2881	5986
2881	5986
2881	5986
2881	5986
2881	5986
2881	5987
2882	5987
2882	5987
2882	5987
2882	5987
2882	5987
2882	5987
2882	5988
2882	5988
2882	5988
2882	5988
2882	5988
2882	5988
2882	5988
2882	5988
2882	5988
2882	5988
2882	5988
2882	5988
2882	5988
2882	5989
2882	5989
2883	5989
2883	5989
2883	5989
2883	5989
2883	5989
2883	5989
2883	5989
2883	5989
2883	5989
2883	5989
2884	5989
2884	5989
2884	5990
2884	5990
2884	5990
2884	5990
2884	5990
2884	5990
2884	5990
2884	5990
2884	5990
2884	5990
2884	5991
2883	5991
2883	5991
2883	5991
2883	5991
2883	5991
2882	5991
2882	5991
2882	5991
2882	5991
2882	5992
2882	5992
2881	5992
2881	5992
2881	5992
2881	5992
2881	5992
2881	5992
2881	5992
2881	5992
2881	5992
2882	5992
2882	5992
2882	5992
2882	5993
2883	5993
2883	5993
2883	5993
2884	5993
2884	5993
2884	5993
2885	5993
2885	5993
2886	5993
2886	5993
2886	5993
2887	5993
2887	5993
2888	5993
2888	5993
2889	5993
2889	5993
2890	5993
2890	5993
2891	5993
2891	5993
2891	5993
2892	5993
2892	5993
2893	5993
2893	5994
2894	5994
2894	5994
2894	5994
2895	5994
2895	5994
2896	5994
2896	5994
2896	5994
2897	5994
2897	5994
2898	5994
2898	5994
2898	5994
2899	5994
2899	5994
2900	5994
2900	5994
2900	5994
2901	5994
2901	5994
2901	5994
2902	5994
2902	5994
2902	5994
2903	5994
2903	5994
2904	5994
2904	5994
2904	5994
2905	5994
2905	5994
2905	5994
2906	5994
2906	5994
2906	5994
2906	5994
2907	5994
2907	5994
2907	5994
2908	5994
2908	5994
2908	5994
2908	5994
2908	5994
2909	5994
2909	5994
2909	5994
2909	5994
2909	5994
2909	5994
2909	5994
2909	5994
2909	5994
2909	5994
2909	5994
2909	5994
2909	5994
2909	5994
2909	5994
2908	5994
2908	5994
2908	5994
2908	5994
2908	5994
2907	5994
2907	5994
2907	5994
2907	5994
2907	5994
2906	5994
2906	5994
2906	5995
2906	5995
2906	5995
2905	5995
2905	5995
2905	5995
2905	5995
2905	5995
2905	5995
2905	5995
2904	5995
2904	5995
2904	5995
2904	5995
2904	5995
2904	5995
2904	5995
2904	5995
2904	5996
2904	5996
2905	5996
2905	5996
2905	5996
2905	5996
2906	5996
2906	5996
2906	5996
2907	5996
2907	5996
2908	5996
2908	5996
2909	5996
2909	5996
2910	5996
2910	5996
2911	5996
2912	5996
2912	5996
2913	5996
2913	5996
2914	5996
2914	5996
2915	5996
2915	5996
2916	5996
2916	5996
2916	5996
2917	5996
2917	5996
2917	5996
2917	5996
2917	5996
2917	5996
2917	5996
2917	5996
2917	5996
2917	5996
2916	5996
2916	5996
2916	5996
2916	5996
2916	5996
2915	5996
2915	5996
2915	5996
2915	5996
2915	5996
2914	5996
2914	5996
2914	5996
2914	5996
2914	5996
2914	5996
2914	5996
2914	5996
2914	5996
2914	5996
2914	5996
2914	5996
2914	5995
2915	5995
2915	5995
2915	5995
2915	5995
2915	5995
2916	5995
2916	5995
2916	5995
2916	5995
2916	5995
2917	5995
2917	5994
2917	5994
2917	5994
2918	5994
2918	5994
2918	5994
2919	5994
2919	5994
2919	5994
2920	5994
2920	5994
2921	5994
2921	5994
2922	5994
2922	5994
2923	5994
2923	5994
2924	5994
2925	5994
2925	5994
2926	5994
2927	5994
2928	5994
2928	5994
2929	5994
2930	5994
2931	5994
2932	5994
2933	5994
2934	5994
2935	5994
2936	5994
2937	5994
2938	5994
2939	5994
2940	5994
2941	5994
2942	5994
2942	5994
2943	5994
2944	5994
2945	5994
2946	5994
2947	5994
2948	5994
2949	5994
2950	5994
2951	5994
2951	5994
2952	5994
2953	5994
2954	5994
2955	5994
2956	5994
2956	5994
2957	5994
2958	5994
2958	5994
2959	5994
2959	5994
2960	5994
2960	5994
2961	5994
2961	5994
2961	5994
2962	5994
2962	5994
2962	5994
2962	5994
2962	5994
2962	5994
2962	5994
2962	5994
2962	5994
2962	5994
2961	5994
2961	5994
2961	5994
2961	5994
2961	5994
2960	5994
2960	5994
2960	5994
2960	5994
2960	5994
2960	5994
2960	5994
2960	5995
2960	5995
2960	5995
2960	5995
2960	5995
2960	5995
2959	5995
2959	5995
2959	5995
2959	5995
2959	5995
2959	5995
2958	5995
2958	5996
2957	5996
2957	5996
2956	5996
2956	5996
2955	5996
2954	5996
2953	5996
2952	5996
2951	5996
2950	5996
2949	5996
2948	5996
2947	5997
2946	5997
2945	5997
2944	5997
2943	5997
2943	5997
2942	5997
2941	5997
2940	5997
2940	5997
2939	5997
2939	5997
2939	5997
2939	5997
2939	5997
2939	5997
2939	5997
2940	5997
2940	5997
2940	5997
2941	5997
2942	5998
2942	5998
2943	5998
2943	5998
2944	5998
2944	5998
2945	5998
2945	5998
2945	5998
2945	5998
2945	5998
2945	5998
2944	5998
2944	5999
2943	5999
2942	5999
2942	5999
2941	5999
2940	5999
2939	5999
2938	5999
2937	5999
2936	6000
2935	6000
2934	6000
2934	6000
2933	6000
2933	6000
2933	6000
2933	6000
2933	6000
2934	6000
2935	6001
2935	6001
2936	6001
2938	6001
2939	6001
2940	6001
2941	6001
2943	6001
2944	6001
2945	6001
2946	6001
2947	6001
2948	6001
2949	6001
2949	6001
2950	6002
2950	6002
2949	6002
2949	6002
2948	6002
2947	6002
2946	6002
2945	6002
2944	6002
2943	6002
2941	6002
2940	6002
2938	6002
2936	6002
2935	6002
2933	6002
2932	6002
2931	6002
2929	6002
2928	6002
2927	6003
2926	6003
2925	6003
2925	6003
2924	6003
2923	6003
2923	6003
2922	6003
2921	6003
2921	6003
2920	6003
2919	6003
2918	6003
2918	6003
2916	6003
2915	6003
2914	6003
2913	6004
2911	6004
2910	6004
2908	6004
2906	6004
2905	6004
2903	6004
2901	6004
2899	6004
2898	6004
2896	6004
2895	6004
2894	6004
2893	6004
2892	6004
2892	6004
2892	6005
2892	6005
2893	6005
2894	6005
2895	6005
2897	6004
2899	6004
2901	6004
2903	6004
2906	6004
2909	6004
2913	6004
2916	6004
2920	6004
2923	6004
2927	6003
2930	6003
2934	6003
2937	6003
2940	6003
2943	6002
2945	6002
2947	6002
2948	6002
2949	6002
2949	6001
2949	6001
2949	6001
2948	6001
2947	6001
2945	6000
2943	6000
2940	6000
2937	6000
2935	6000
2932	6000
2929	6000
2926	6000
2924	6000
2922	6000
2920	6000
2919	6000
2918	6000
2918	6000
2919	6000
2921	6000
2923	6000
2927	6000
2931	6000
2935	6000
2941	6000
2947	6000
2954	6000
2962	6000
2970	6001
2979	6001
2988	6001
2997	6001
3006	6001
3014	6001
3023	6001
3031	6002
3039	6002
3046	6002
3053	6002
3059	6002
3063	6002
3067	6002
3070	6003
3072	6003
3072	6003
3072	6003
3070	6003
3068	6003
3064	6003
3059	6003
3054	6003
3047	6003
3040	6003
3033	6004
3024	6004
3016	6004
3007	6004
2998	6004
2988	6004
2979	6004
2970	6004
2962	6004
2953	6004
2945	6004
2938	6004
2931	6004
2924	6004
2918	6004
2913	6004
2909	6004
2905	6004
2902	6004
2900	6004
2898	6004
2897	6004
2897	6004
2897	6004
2897	6004
2898	6004
2900	6004
2901	6004
2903	6004
2906	6004
2908	6004
2910	6004
2913	6004
2915	6004
2917	6004
2919	6004
2921	6004
2923	6004
2925	6004
2927	6004
2928	6004
2929	6004
2930	6004
2931	6004
2932	6004
2932	6004
2932	6004
2933	6004
2933	6004
2933	6004
2933	6004
2933	6004
2932	6004
2932	6004
2932	6004
2932	6004
2932	6004
2932	6004
2932	6004
2932	6004
2932	6004
2932	6004
2932	6004
2932	6004
2933	6004
2933	6004
2933	6004
2933	6004
2934	6004
2934	6004
2934	6004
2934	6004
2934	6004
2934	6004
2934	6004
2934	6004
2934	6004
2934	6004
2934	6004
2934	6004
2933	6004
2933	6004
2933	6005
2933	6005
2933	6005
2933	6005
2933	6005
2933	6005
2933	6005
2934	6005
2934	6005
2935	6005
2935	6005
2936	6005
2937	6005
2938	6005
2938	6005
2939	6005
2940	6005
2941	6005
2942	6005
2943	6005
2944	6005
2945	6005
2946	6006
2946	6006
2947	6006
2947	6006
2947	6006
2947	6006
2947	6006
2947	6006
2947	6006
2946	6006
2945	6007
2945	6007
2944	6007
2943	6007
2942	6007
2940	6007
2939	6008
2938	6008
2937	6008
2936	6008
2935	6008
2934	6008
2934	6009
2933	6009
2933	6009
2933	6009
2933	6010
2933	6010
2933	6010
2934	6010
2935	6011
2935	6011
2936	6011
2938	6011
2939	6012
2940	6012
2941	6012
2943	6012
2944	6013
2945	6013
2946	6013
2947	6013
2949	6013
2949	6014
2950	6014
2951	6014
2951	6014
2952	6015
2952	6015
2952	6015
2952	6015
2952	6015
2952	6016
2952	6016
2952	6016
2952	6016
2952	6016
2952	6017
2952	6017
2951	6017
2952	6017
2952	6017
2952	6018
2952	6018
2952	6018
2953	6018
2953	6018
2954	6019
2954	6019
2955	6019
2956	6019
2956	6020
2957	6020
2957	6020
2958	6021
2958	6021
2959	6021
2959	6021
2959	6022
2959	6022
2959	6022
2959	6023
2958	6023
2958	6023
2958	6024
2957	6024
2957	6024
2956	6025
2956	6025
2955	6025
2955	6026
2955	6026
2955	6026
2955	6026
2956	6027
2956	6027
2957	6027
2958	6028
2959	6028
2961	6028
2962	6029
2964	6029
2966	6029
2968	6030
2970	6030
2972	6030
2974	6031
2976	6031
2979	6032
2981	6032
2983	6032
2985	6033
2986	6033
2988	6033
2989	6034
2990	6034
2991	6034
2991	6035
2992	6035
2992	6036
2992	6036
2991	6036
2991	6037
2990	6037
2989	6037
2988	6038
2987	6038
2986	6038
2985	6039
2984	6039
2982	6039
2981	6040
2980	6040
2979	6040
2977	6041
2976	6041
2975	6041
2974	6042
2973	6042
2972	6042
2971	6043
2970	6043
2970	6043
2969	6043
2968	6044
2967	6044
2966	6044
2965	6045
2964	6045
2963	6045
2961	6045
2960	6046
2959	6046
2957	6046
2956	6046
2954	6047
2952	6047
2951	6047
2949	6048
2947	6048
2945	6048
2944	6048
2942	6049
2940	6049
2938	6049
2937	6049
2935	6049
2934	6050
2932	6050
2931	6050
2929	6050
2928	6050
2927	6050
2926	6051
2925	6051
2924	6051
2923	6051
2922	6051
2921	6051
2920	6051
2919	6051
2918	6051
2917	6051
2916	6051
2915	6051
2913	6052
2912	6052
2911	6052
2910	6052
2908	6052
2907	6052
2905	6052
2904	6052
2902	6052
2900	6052
2899	6052
2897	6052
2896	6052
2894	6052
2893	6052
2891	6052
2890	6052
2888	6052
2887	6052
2886	6052
2885	6052
2884	6052
2883	6052
2882	6052
2881	6052
2881	6052
2880	6052
2880	6052
2880	6052
2879	6052
2879	6052
2879	6052
2879	6052
2879	6052
2878	6052
2878	6052
2878	6052
2878	6052
2878	6052
2878	6052
2877	6052
2877	6052
2877	6052
2877	6052
2876	6052
2876	6052
2875	6052
2875	6052
2874	6051
2874	6051
2873	6051
2873	6051
2872	6051
2872	6051
2871	6051
2871	6051
2870	6051
2870	6051
2869	6051
2869	6050
2869	6050
2868	6050
2868	6050
2868	6050
2867	6050
2867	6050
2867	6050
2867	6050
2866	6050
2866	6049
2866	6049
2866	6049
2866	6049
2865	6049
2865	6049
2865	6049
2865	6049
2864	6049
2864	6049
2864	6049
2864	6049
2863	6049
2863	6049
2863	6048
2863	6048
2863	6048
2863	6048
2863	6048
2863	6048
2863	6048
2863	6048
2863	6048
2864	6047
2864	6047
2864	6047
2865	6047
2866	6047
2866	6047
2867	6046
2867	6046
2868	6046
2869	6046
2870	6046
2870	6045
2871	6045
2872	6045
2873	6045
2874	6044
2874	6044
2875	6044
2876	6044
2876	6044
2877	6043
2877	6043
2878	6043
2878	6043
2878	6042
2879	6042
2879	6042
2879	6042
2879	6042
2879	6042
2879	6041
2879	6041
2879	6041
2879	6041
2879	6041
2879	6040
2879	6040
2879	6040
2879	6040
2879	6040
2879	6039
2879	6039
2878	6039
2878	6039
2879	6039
2879	6038
2879	6038
2879	6038
2879	6037
2879	6037
2879	6037
2880	6036
2880	6036
2880	6036
2880	6035
2881	6035
2881	6035
2881	6034
2882	6034
2882	6033
2883	6033
2883	6032
2883	6032
2884	6031
2884	6031
2884	6030
2885	6030
2885	6029
2885	6029
2886	6028
2886	6028
2886	6027
2886	6026
2887	6026
2887	6025
2887	6025
2887	6024
2888	6023
2888	6023
2888	6022
2888	6022
2888	6021
2889	6020
2889	6020
2889	6019
2889	6018
2889	6018
2890	6017
2890	6016
2890	6016
2891	6015
2891	6014
2891	6014
2892	6013
2892	6013
2892	6012
2892	6011
2893	6011
2893	6010
2893	6009
2893	6009
2894	6008
2894	6007
2894	6007
2894	6006
2894	6005
2894	6005
2893	6004
2893	6003
2893	6002
2892	6002
2891	6001
2891	6000
2890	6000
2889	5999
2888	5998
2887	5998
2886	5997
2884	5996
2883	5996
2881	5995
2880	5994
2879	5994
2877	5993
2876	5992
2874	5992
2873	5991
2871	5990
2870	5990
2869	5989
2868	5988
2867	5988
2866	5987
2866	5987
2865	5986
2865	5985
2865	5985
2865	5984
2866	5984
2866	5983
2867	5982
2868	5982
2869	5981
2871	5980
2872	5980
2874	5979
2876	5979
2877	5978
2879	5977
2881	5977
2884	5976
2886	5975
2888	5975
2890	5974
2892	5973
2894	5973
2896	5972
2898	5971
2900	5971
2901	5970
2903	5969
2905	5969
2906	5968
2907	5967
2909	5967
2910	5966
2911	5965
2912	5965
2913	5964
2914	5964
2914	5963
2915	5962
2916	5962
2917	5961
2917	5960
2918	5960
2919	5959
2919	5959
2920	5958
2921	5957
2921	5957
2922	5956
2923	5956
2924	5955
2924	5955
2925	5954
2926	5954
2926	5953
2927	5953
2928	5952
2928	5951
2929	5951
2929	5950
2930	5950
2930	5949
2931	5949
2931	5948
2931	5948
2932	5947
2932	5947
2932	5946
2932	5946
2932	5945
2932	5945
2932	5944
2932	5944
2932	5943
2932	5943
2932	5942
2932	5942
2932	5941
2932	5941
2932	5940
2932	5940
2932	5939
2932	5939
2932	5938
2933	5938
2933	5937
2933	5937
2933	5936
2934	5936
2934	5936
2935	5935
2935	5935
2935	5934
2936	5934
2936	5933
2937	5933
2937	5933
2938	5932
2938	5932
2939	5931
2939	5931
2940	5931
2940	5930
2940	5930
2941	5930
2941	5929
2941	5929
2942	5928
2942	5928
2942	5928
2942	5927
2942	5927
2942	5927
2943	5926
2943	5926
2943	5926
2943	5925
2943	5925
2943	5925
2943	5924
2943	5924
2943	5924
2943	5923
2944	5923
2944	5923
2944	5922
2945	5922
2945	5922
2945	5922
2946	5921
2946	5921
2947	5921
2947	5921
2948	5920
2949	5920
2949	5920
2950	5920
2950	5920
2951	5919
2951	5919
2952	5919
2952	5919
2953	5919
2953	5918
2953	5918
2954	5918
2954	5918
2954	5918
2954	5917
2954	5917
2954	5917
2954	5917
2954	5917
2954	5917
2953	5916
2953	5916
2953	5916
2953	5916
2953	5916
2952	5915
2952	5915
2952	5915
2952	5915
2952	5915
2952	5914
2952	5914
2952	5914
2951	5914
2951	5914
2951	5913
2951	5913
2952	5913
2952	5913
2952	5912
2952	5912
2952	5912
2952	5912
2952	5912
2952	5911
2952	5911
2953	5911
2953	5911
2953	5911
2953	5911
2954	5910
2954	5910
2954	5910
2955	5910
2955	5910
2955	5910
2956	5909
2956	5909
2957	5909
2957	5909
2958	5909
2958	5909
2959	5909
2959	5908
2960	5908
2960	5908
2961	5908
2961	5908
2962	5908
2962	5908
2962	5908
2963	5908
2963	5908
2963	5908
2963	5908
2963	5907
2963	5907
2963	5907
2963	5907
2963	5907
2963	5907
2963	5907
2963	5907
2962	5907
2962	5907
2962	5907
2962	5908
2962	5908
2961	5908
2961	5908
2961	5908
2961	5908
2961	5908
2961	5908
2961	5908
2961	5908
2961	5908
2961	5908
2961	5908
2961	5908
2962	5908
2962	5908
2962	5908
2962	5908
2962	5908
2962	5908
2962	5909
2962	5909
2962	5909
2961	5909
2961	5909
2961	5909
2961	5909
2960	5909
2960	5909
2959	5909
2958	5909
2958	5909
2957	5909
2956	5909
2955	5909
2954	5909
2953	5909
2952	5909
2952	5909
2951	5909
2950	5909
2949	5909
2948	5909
2947	5909
2946	5909
2945	5910
2944	5910
2943	5910
2943	5910
2942	5910
2941	5910
2940	5910
2940	5910
2939	5910
2939	5910
2938	5910
2937	5910
2937	5910
2936	5910
2936	5910
2936	5910
2935	5910
2935	5910
2935	5910
2935	5910
2934	5910
2934	5910
2934	5910
2934	5910
2934	5910
2934	5910
2934	5910
2935	5910
2935	5910
2935	5910
2935	5910
2936	5910
2936	5910
2937	5910
2937	5910
2938	5910
2938	5910
2938	5910
2939	5910
2939	5910
2940	5910
2940	5910
2940	5910
2940	5910
2940	5910
2940	5910
2940	5910
2940	5910
2939	5910
2939	5910
2938	5910
2937	5910
2936	5910
2935	5910
2934	5909
2933	5909
2931	5909
2930	5909
2928	5909
2927	5909
2926	5909
2924	5909
2923	5909
2923	5909
2922	5909
2922	5909
2922	5909
2922	5909
2923	5909
2925	5909
2926	5909
2929	5909
2932	5909
2935	5909
2939	5909
2943	5909
2947	5909
2952	5909
2958	5909
2963	5909
2969	5909
2975	5909
2981	5909
2987	5909
2993	5909
2998	5909
3003	5909
3008	5909
3013	5909
3017	5909
3020	5909
3022	5909
3024	5909
3025	5909
3025	5909
3025	5909
3023	5909
3021	5909
3017	5909
3013	5909
3009	5909
3003	5909
2997	5909
2990	5909
2983	5909
2976	5909
2968	5909
2960	5909
2952	5909
2944	5909
2935	5909
2928	5909
2920	5909
2912	5909
2905	5909
2899	5909
2893	5909
2887	5909
2882	5909
2878	5909
2874	5909
2871	5909
2869	5909
2867	5908
2865	5908
2865	5908
2864	5908
2864	5908
2865	5908
2866	5908
2867	5908
2868	5908
2870	5908
2872	5908
2873	5908
2875	5908
2877	5908
2879	5908
2881	5908
2883	5909
2884	5909
2886	5909
2887	5909
2888	5909
2889	5909
2890	5909
2890	5909
2890	5909
2891	5909
2891	5909
2891	5909
2890	5909
2890	5909
2889	5909
2889	5909
2888	5909
2888	5909
2887	5909
2886	5909
2885	5909
2885	5909
2884	5909
2883	5909
2883	5909
2882	5909
2882	5909
2881	5909
2881	5909
2881	5909
2880	5909
2880	5909
2880	5909
2880	5909
2880	5909
2880	5909
2880	5909
2880	5909
2880	5909
2880	5909
2880	5909
2880	5909
2880	5909
2881	5910
2881	5910
2881	5910
2881	5910
2881	5910
2881	5910
2881	5910
2881	5910
2881	5910
2882	5910
2882	5910
2882	5910
2882	5910
2882	5910
2882	5910
2882	5910
2882	5910
2882	5910
2882	5910
2882	5910
2882	5910
2882	5910
2882	5910
2882	5910
2882	5910
2882	5910
2882	5910
2882	5910
2882	5910
2882	5910
2882	5910
2883	5911
2883	5911
2883	5911
2883	5911
2883	5911
2883	5911
2883	5911
2883	5911
2883	5911
2883	5911
2883	5911
2883	5911
2883	5911
2883	5911
2882	5911
2882	5911
2882	5911
2882	5911
2882	5911
2882	5911
2882	5911
2882	5911
2882	5911
2882	5911
2882	5911
2882	5911
2882	5911
2882	5911
2882	5911
2882	5911
2882	5911
2883	5911
2883	5911
2883	5911
2883	5911
2884	5911
2884	5911
2884	5911
2884	5911
2885	5911
2885	5911
2885	5911
2885	5911
2885	5911
2886	5911
2886	5911
2886	5911
2886	5911
2886	5911
2886	5911
2886	5912
2886	5912
2886	5912
2887	5912
2887	5912
2887	5912
2887	5912
2887	5912
2888	5912
2888	5912
2888	5912
2888	5912
2889	5912
2889	5913
2889	5913
2890	5913
2890	5913
2890	5913
2891	5913
2891	5913
2891	5913
2891	5913
2892	5914
2892	5914
2892	5914
2892	5914
2892	5914
2892	5914
2892	5914
2892	5914
2892	5914
2892	5915
2892	5915
2892	5915
2892	5915
2892	5915
2892	5915
2892	5915
2892	5915
2892	5916
2892	5916
2893	5916
2893	5916
2893	5916
2893	5916
2894	5916
2894	5916
2895	5917
2895	5917
2896	5917
2897	5917
2897	5917
2898	5917
2899	5917
2899	5918
2900	5918
2900	5918
2901	5918
2902	5918
2902	5918
2903	5919
2903	5919
2904	5919
2904	5919
2904	5919
2905	5920
2905	5920
2905	5920
2905	5920
2905	5920
2905	5921
2905	5921
2905	5921
2905	5921
2905	5922
2905	5922
2905	5922
2905	5922
2905	5923
2905	5923
2905	5923
2905	5923
2904	5923
2904	5924
2904	5924
2904	5924
2904	5924
2904	5925
2904	5925
2903	5925
2903	5925
2903	5926
2903	5926
2902	5926
2902	5926
2902	5927
2901	5927
2901	5927
2900	5927
2900	5928
2899	5928
2899	5928
2898	5928
2897	5929
2897	5929
2896	5929
2895	5929
2894	5930
2893	5930
2892	5930
2891	5930
2890	5931
2889	5931
2888	5931
2887	5931
2885	5932
2884	5932
2883	5932
2881	5932
2880	5933
2879	5933
2877	5933
2876	5933
2875	5934
2873	5934
2872	5934
2871	5934
2870	5934
2868	5935
2867	5935
2866	5935
2865	5935
2864	5936
2863	5936
2862	5936
2861	5936
2860	5937
2859	5937
2859	5937
2858	5937
2857	5938
2857	5938
2856	5938
2856	5938
2856	5939
2855	5939
2855	5939
2855	5939
2855	5940
2855	5940
2855	5940
2855	5940
2855	5941
2856	5941
2856	5941
2856	5941
2857	5942
2857	5942
2857	5942
2858	5942
2858	5943
2859	5943
2859	5943
2859	5943
2860	5944
2860	5944
2861	5944
2861	5944
2862	5945
2862	5945
2862	5945
2863	5945
2863	5946
2863	5946
2863	5946
2864	5946
2864	5946
2864	5947
2864	5947
2864	5947
2864	5947
2864	5948
2864	5948
2864	5948
2865	5948
2865	5948
2865	5949
2865	5949
2866	5949
2866	5949
2866	5949
2867	5950
2867	5950
2868	5950
2869	5950
2869	5951
2870	5951
2871	5951
2872	5951
2873	5951
2874	5952
2875	5952
2876	5952
2877	5952
2878	5952
2879	5953
2880	5953
2882	5953
2883	5953
2884	5953
2885	5954
2885	5954
2886	5954
2887	5954
2888	5955
2889	5955
2889	5955
2890	5955
2891	5955
2891	5955
2892	5956
2892	5956
2893	5956
2893	5956
2894	5956
2894	5957
2895	5957
2895	5957
2896	5957
2897	5957
2897	5958
2898	5958
2899	5958
2900	5958
2900	5958
2901	5958
2902	5959
2903	5959
2904	5959
2905	5959
2906	5959
2907	5959
2908	5960
2909	5960
2910	5960
2911	5960
2912	5960
2913	5960
2914	5961
2915	5961
2916	5961
2917	5961
2918	5961
2919	5961
2919	5961
2920	5962
2921	5962
2922	5962
2922	5962
2923	5962
2923	5962
2924	5962
2925	5962
2925	5962
2926	5963
2926	5963
2927	5963
2927	5963
2928	5963
2928	5963
2929	5963
2929	5963
2930	5964
2931	5964
2931	5964
2932	5964
2932	5964
2933	5964
2933	5964
2934	5964
2934	5964
2935	5965
2935	5965
2936	5965
2936	5965
2937	5965
2937	5965
2938	5965
2938	5965
2939	5965
2940	5965
2940	5966
2941	5966
2941	5966
2942	5966
2943	5966
2943	5966
2944	5966
2944	5966
2945	5966
2946	5966
2946	5966
2947	5966
2948	5966
2948	5967
2949	5967
2949	5967
2950	5967
2950	5967
2951	5967
2951	5967
2952	5967
2952	5967
2952	5967
2952	5968
2953	5968
2953	5968
2953	5968
2953	5968
2953	5968
2953	5968
2953	5968
2953	5969
2953	5969
2953	5969
2952	5969
2952	5969
2952	5969
2952	5969
2952	5969
2952	5970
2952	5970
2952	5970
2952	5970
2952	5970
2952	5970
2952	5970
2952	5970
2952	5971
2952	5971
2952	5971
2952	5971
2953	5971
2953	5971
2953	5971
2953	5971
2953	5971
2953	5971
2953	5971
2953	5971
2953	5971
2954	5971
2954	5971
2954	5971
2954	5971
2954	5971
2954	5971
2954	5971
2954	5971
2954	5971
2954	5971
2955	5971
2955	5971
2955	5971
2955	5971
2955	5971
2955	5971
2955	5971
2955	5971
2955	5971
2955	5971
2955	5971
2955	5971
2955	5971
2955	5971
2955	5971
2954	5971
2954	5971
2954	5971
2954	5971
2954	5971
2953	5971
2953	5971
2953	5971
2953	5971
2952	5971
2952	5971
2952	5971
2952	5971
2951	5971
2951	5971
2951	5971
2951	5971
2951	5971
2951	5971
2951	5971
2951	5971
2951	5971
2951	5971
2951	5971
2951	5971
2951	5971
2952	5971
2952	5971
2952	5971
2952	5971
2952	5971
2952	5971
2953	5971
2953	5971
2953	5971
2953	5971
2953	5971
2953	5970
2953	5970
2953	5970
2953	5970
2953	5970
2953	5970
2953	5970
2953	5970
2953	5970
2953	5970
2952	5970
2952	5970
2952	5970
2952	5970
2952	5970
2951	5970
2951	5970
2951	5970
2951	5970
2950	5970
2950	5970
2950	5970
2950	5970
2950	5970
2949	5970
2949	5970
2949	5970
2949	5970
2949	5970
2949	5970
2949	5970
2949	5970
2949	5970
2949	5970
2949	5970
2949	5970
2949	5969
2949	5969
2949	5969
2949	5969
2949	5969
2949	5969
2948	5969
2948	5969
2948	5969
2948	5969
2948	5969
2948	5969
2948	5969
2948	5969
2947	5969
2947	5969
2947	5969
2947	5969
2946	5969
2946	5969
2946	5969
2945	5969
2945	5969
2945	5969
2944	5968
2944	5968
2944	5968
2944	5968
2943	5968
2943	5968
2943	5968
2943	5968
2943	5968
2943	5968
2943	5968
2943	5968
2943	5968
2943	5968
2943	5968
2943	5968
2943	5968
2944	5968
2944	5968
2944	5968
2944	5968
2945	5968
2945	5968
2945	5968
2945	5968
2946	5968
2946	5968
2946	5968
2946	5968
2947	5968
2947	5968
2947	5968
2947	5968
2947	5968
2947	5968
2947	5968
2947	5968
2947	5968
2947	5968
2946	5968
2946	5967
2946	5967
2945	5967
2945	5967
2945	5967
2944	5967
2944	5967
2943	5967
2943	5967
2942	5967
2942	5967
2941	5967
2941	5967
2940	5967
2940	5967
2939	5967
2939	5967
2938	5966
2938	5966
2937	5966
2937	5966
2936	5966
2936	5966
2935	5966
2935	5966
2934	5966
2934	5966
2933	5966
2933	5966
2933	5966
2932	5966
2932	5966
2932	5966
2931	5966
2931	5965
2930	5965
2930	5965
2930	5965
2930	5965
2929	5965
2929	5965
2929	5965
2928	5965
2928	5965
2928	5965
2927	5965
2927	5965
2927	5965
2926	5965
2926	5964
2926	5964
2926	5964
2925	5964
2925	5964
2925	5964
2925	5964
2924	5964
2924	5964
2924	5964
2924	5964
2924	5964
2924	5964
2924	5964
2923	5964
2923	5964
2923	5964
2923	5964
2923	5963
2923	5963
2924	5963
2924	5963
2924	5963
2924	5963
2924	5963
2924	5963
2924	5963
2924	5963
2924	5963
2924	5963
2923	5963
2923	5963
2923	5963
2922	5963
2922	5963
2921	5963
2920	5963
2920	5963
2919	5963
2918	5963
2917	5963
2916	5963
2915	5963
2913	5962
2912	5962
2911	5962
2910	5962
2910	5962
2909	5962
2908	5962
2908	5962
2908	5962
2908	5962
2909	5962
2910	5962
2911	5962
2913	5962
2915	5962
2918	5962
2920	5962
2924	5962
2927	5962
2932	5962
2936	5962
2941	5962
2946	5962
2951	5962
2956	5962
2962	5962
2967	5962
2973	5962
2978	5962
2983	5962
2988	5962
2993	5962
2997	5962
3000	5962
3004	5961
3006	5961
3008	5961
3010	5961
3010	5961
3010	5961
3010	5961
3008	5961
3006	5961
3003	5961
3000	5961
2996	5961
2991	5961
2986	5961
2981	5961
2975	5961
2969	5960
2963	5960
2956	5960
2950	5960
2943	5960
2937	5960
2930	5960
2924	5960
2918	5960
2913	5960
2908	5960
2903	5960
2899	5960
2895	5960
2892	5960
2889	5960
2887	5960
2885	5960
2884	5960
2883	5960
2883	5960
2883	5960
2884	5960
2885	5960
2886	5960
2887	5960
2889	5960
2891	5960
2892	5960
2894	5960
2896	5960
2898	5960
2900	5960
2902	5959
2904	5959
2906	5959
2907	5959
2908	5959
2909	5959
2910	5959
2911	5959
2912	5959
2912	5959
2913	5959
2913	5959
2913	5959
2913	5959
2913	5959
2912	5959
2912	5959
2912	5959
2912	5959
2911	5958
2911	5958
2911	5958
2910	5958
2910	5958
2910	5958
2910	5958
2910	5958
2910	5958
2910	5958
2910	5958
2910	5958
2911	5958
2911	5958
2911	5958
2911	5958
2912	5958
2912	5958
2912	5958
2912	5958
2913	5958
2913	5958
2913	5958
2913	5958
2913	5958
2913	5958
2913	5958
2913	5958
2913	5958
2913	5958
2913	5958
2912	5958
2912	5958
2912	5958
2912	5957
2911	5957
2911	5957
2911	5957
2910	5957
2910	5957
2910	5957
2910	5957
2909	5957
2909	5957
2909	5957
2909	5957
2909	5957
2909	5957
2909	5957
2908	5957
2908	5957
2908	5957
2908	5957
2908	5957
2908	5957
2908	5957
2908	5957
2908	5957
2909	5956
2909	5956
2909	5956
2909	5956
2909	5956
2909	5956
2909	5956
2909	5956
2909	5956
2909	5956
2910	5956
2910	5956
2910	5956
2910	5956
2910	5956
2910	5956
2910	5956
2911	5956
2911	5956
2911	5956
2911	5956
2911	5956
2911	5956
2911	5956
2912	5956
2912	5956
2912	5956
2912	5956
2912	5956
2912	5956
2912	5956
2912	5956
2912	5956
2912	5956
2912	5956
2912	5956
2912	5956
2912	5956
2912	5956
2912	5955
2912	5955
2912	5955
2912	5955
2912	5955
2912	5955
2912	5955
2912	5955
2912	5955
2912	5955
2912	5955
2912	5955
2912	5955
2912	5955
2912	5955
2913	5955
2913	5955
2913	5955
2914	5955
2914	5955
2915	5955
2915	5955
2916	5955
2916	5955
2917	5955
2917	5955
2918	5955
2919	5955
2919	5956
2920	5956
2921	5956
2921	5956
2922	5956
2922	5956
2923	5956
2924	5956
2924	5956
2925	5956
2925	5956
2926	5956
2926	5956
2927	5956
2927	5957
2928	5957
2928	5957
2929	5957
2929	5957
2930	5957
2930	5957
2931	5957
2931	5957
2931	5957
2932	5958
2932	5958
2932	5958
2933	5958
2933	5958
2933	5958
2934	5958
2934	5959
2934	5959
2934	5959
2934	5959
2935	5959
2935	5959
2935	5959
2935	5960
2935	5960
2935	5960
2935	5960
2935	5960
2935	5960
2935	5961
2935	5961
2935	5961
2935	5961
2935	5961
2935	5962
2935	5962
2935	5962
2935	5962
2935	5963
2935	5963
2935	5963
2935	5963
2935	5964
2935	5964
2935	5964
2935	5964
2934	5965
2934	5965
2934	5965
2934	5965
2933	5966
2933	5966
2932	5966
2931	5966
2931	5966
2930	5967
2929	5967
2928	5967
2927	5967
2926	5967
2924	5968
2923	5968
2922	5968
2921	5968
2919	5968
2918	5968
2916	5969
2915	5969
2914	5969
2912	5969
2911	5969
2909	5969
2908	5970
2906	5970
2905	5970
2904	5970
2902	5970
2901	5970
2900	5971
2898	5971
2897	5971
2896	5971
2895	5972
2894	5972
2892	5972
2891	5972
2890	5972
2889	5973
2888	5973
2887	5973
2886	5973
2885	5974
2884	5974
2883	5974
2883	5974
2882	5975
2881	5975
2880	5975
2879	5975
2879	5975
2878	5975
2877	5976
2877	5976
2876	5976
2875	5976
2875	5976
2874	5976
2874	5977
2873	5977
2873	5977
2872	5977
2872	5977
2871	5977
2871	5977
2870	5978
2870	5978
2869	5978
2869	5978
2869	5978
2868	5978
2868	5978
2868	5978
2867	5978
2867	5979
2867	5979
2867	5979
2867	5979
2866	5979
2867	5979
2867	5979
2867	5979
2867	5979
2867	5979
2867	5979
2868	5980
2868	5980
2869	5980
2869	5980
2870	5980
2870	5980
2871	5980
2872	5980
2872	5980
2873	5980
2873	5980
2874	5981
2875	5981
2875	5981
2876	5981
2876	5981
2877	5981
2877	5981
2877	5981
2878	5982
2878	5982
2878	5982
2879	5982
2879	5982
2879	5982
2879	5982
2879	5983
2879	5983
2879	5983
2879	5983
2880	5983
2880	5983
2880	5983
2880	5983
2880	5984
2880	5984
2880	5984
2880	5984
2880	5984
2881	5984
2881	5984
2881	5984
2881	5984
2882	5984
2882	5984
2882	5985
2883	5985
2883	5985
2884	5985
2884	5985
2885	5985
2885	5985
2886	5985
2886	5985
2887	5985
2887	5985
2888	5985
2888	5985
2889	5985
2889	5986
2890	5986
2890	5986
2891	5986
2891	5986
2891	5986
2892	5986
2892	5986
2892	5986
2893	5986
2893	5986
2893	5986
2893	5986
2893	5986
2894	5986
2894	5986
2894	5986
2894	5986
2894	5986
2895	5986
2895	5986
2895	5986
2896	5986
2896	5986
2896	5986
2897	5986
2897	5986
2897	5986
2898	5987
2898	5987
2899	5987
2899	5987
2899	5987
2900	5987
2900	5987
2901	5987
2901	5987
2902	5987
2902	5987
2902	5987
2903	5987
2903	5987
2903	5987
2903	5987
2903	5987
2904	5987
2904	5987
2904	5987
2904	5987
2904	5987
2904	5987
2904	5987
2904	5987
2904	5987
2904	5987
2904	5987
2904	5987
2904	5987
2904	5987
2904	5987
2904	5987
2904	5987
2904	5987
2905	5988
2905	5988
2905	5988
2905	5988
2905	5988
2906	5988
2906	5988
2906	5988
2907	5988
2907	5987
2907	5987
2907	5987
2908	5987
2908	5987
2908	5987
2908	5987
2909	5987
2909	5987
2909	5987
2909	5987
2910	5987
2910	5987
2910	5987
2910	5987
2911	5987
2911	5987
2911	5987
2911	5987
2912	5986
2912	5986
2912	5986
2913	5986
2913	5986
2914	5986
2914	5986
2914	5986
2915	5986
2915	5986
2916	5986
2916	5986
2916	5986
2917	5986
2917	5986
2917	5986
2917	5986
2918	5986
2918	5986
2918	5986
2918	5986
2918	5986
2918	5986
2918	5985
2918	5985
2918	5985
2917	5985
2917	5985
2917	5985
2917	5985
2916	5985
2916	5985
2915	5985
2915	5985
2915	5985
2914	5985
2914	5985
2914	5985
2913	5985
2913	5985
2913	5985
2913	5985
2912	5985
2912	5985
2912	5985
2912	5985
2912	5985
2912	5985
2912	5985
2912	5985
2913	5985
2913	5985
2913	5985
2913	5985
2914	5985
2914	5984
2914	5984
2915	5984
2915	5984
2915	5984
2916	5984
2916	5984
2916	5984
2917	5984
2917	5984
2917	5984
2918	5984
2918	5984
2918	5984
2918	5984
2918	5984
2919	5984
2919	5984
2919	5984
2919	5984
2919	5984
2919	5984
2919	5984
2919	5984
2919	5984
2919	5984
2918	5984
2918	5984
2918	5984
2918	5984
2917	5983
2917	5983
2917	5983
2917	5983
2916	5983
2916	5983
2916	5983
2916	5983
2915	5983
2915	5983
2915	5983
2915	5983
2915	5983
2915	5983
2915	5983
2914	5983
2914	5983
2914	5983
2915	5983
2915	5983
2915	5983
2915	5983
2915	5983
2915	5983
2915	5983
2915	5983
2916	5983
2916	5983
2916	5983
2916	5983
2916	5983
2917	5982
2917	5982
2917	5982
2917	5982
2917	5982
2918	5982
2918	5982
2918	5982
2918	5982
2918	5982
2918	5982
2918	5982
2918	5982
2918	5982
2918	5982
2918	5982
2918	5981
2918	5981
2918	5981
2918	5981
2918	5981
2918	5981
2918	5981
2918	5981
2918	5981
2917	5981
2917	5980
2917	5980
2917	5980
2917	5980
2916	5980
2916	5980
2916	5980
2916	5980
2916	5980
2915	5980
2915	5980
2915	5980
2915	5980
2915	5980
2915	5980
2915	5980
2915	5980
2915	5980
2915	5979
2915	5979
2916	5979
2916	5979
2916	5979
2917	5979
2917	5979
2918	5979
2918	5979
2919	5979
2919	5979
2920	5979
2921	5979
2922	5979
2922	5979
2923	5979
2924	5979
2925	5979
2925	5979
2926	5979
2927	5979
2928	5979
2928	5979
2929	5979
2930	5978
2930	5978
2931	5978
2931	5978
2931	5978
2932	5978
2932	5978
2932	5978
2932	5978
2932	5978
2932	5977
2932	5977
2931	5977
2931	5977
2931	5977
2930	5977
2930	5977
2929	5977
2929	5977
2928	5977
2927	5976
2927	5976
2926	5976
2925	5976
2925	5976
2924	5976
2923	5976
2922	5976
2922	5976
2921	5976
2921	5976
2920	5975
2919	5975
2919	5975
2918	5975
2918	5975
2918	5975
2917	5975
2917	5975
2916	5975
2916	5975
2916	5975
2916	5975
2916	5974
2915	5974
2915	5974
2915	5974
2915	5974
2915	5974
2915	5974
2915	5974
2915	5974
2915	5974
2916	5974
2916	5974
2916	5973
2916	5973
2916	5973
2916	5973
2917	5973
2917	5973
2917	5973
2917	5973
2918	5973
2918	5973
2918	5973
2919	5973
2919	5973
2919	5973
2919	5973
2920	5973
2920	5973
2920	5973
2921	5973
2921	5972
2921	5972
2921	5972
2921	5972
2921	5972
2921	5972
2921	5972
2921	5972
2921	5972
2920	5972
2920	5972
2919	5972
2919	5972
2918	5972
2917	5972
2916	5972
2915	5971
2914	5971
2913	5971
2912	5971
2911	5971
2910	5971
2909	5971
2908	5971
2907	5971
2907	5971
2906	5970
2906	5970
2906	5970
2906	5970
2907	5970
2908	5970
2909	5970
2911	5970
2913	5970
2915	5970
2918	5970
2921	5969
2925	5969
2929	5969
2933	5969
2938	5969
2943	5969
2948	5969
2954	5969
2959	5969
2965	5969
2971	5969
2977	5969
2982	5969
2988	5969
2993	5968
2998	5968
3003	5968
3007	5968
3010	5968
3013	5968
3016	5968
3017	5968
3018	5968
3019	5968
3018	5968
3017	5967
3015	5967
3013	5967
3010	5967
3006	5967
3001	5967
2996	5967
2991	5967
2985	5967
2979	5967
2972	5967
2965	5966
2959	5966
2952	5966
2945	5966
2939	5966
2932	5966
2926	5966
2921	5966
2916	5966
2911	5966
2906	5966
2903	5966
2899	5966
2897	5966
2894	5966
2893	5965
2892	5965
2891	5965
2891	5965
2891	5965
2892	5965
2893	5965
2894	5965
2896	5965
2898	5965
2900	5965
2902	5965
2904	5965
2906	5965
2908	5965
2910	5965
2912	5965
2914	5965
2916	5965
2918	5965
2919	5964
2920	5964
2922	5964
2923	5964
2923	5964
2924	5964
2925	5964
2925	5964
2925	5964
2925	5964
2925	5963
2925	5963
2925	5963
2925	5963
2925	5963
2924	5963
2924	5963
2924	5963
2923	5963
2923	5963
2923	5962
2922	5962
2922	5962
2921	5962
2921	5962
2921	5962
2920	5962
2920	5962
2920	5962
2920	5962
2920	5962
2919	5962
2919	5962
2919	5961
2919	5961
2919	5961
2919	5961
2919	5961
2919	5961
2919	5961
2919	5961
2919	5961
2920	5961
2920	5961
2920	5961
2920	5961
2920	5961
2920	5960
2920	5960
2921	5960
2921	5960
2921	5960
2921	5960
2921	5960
2921	5960
2921	5960
2921	5960
2921	5960
2921	5960
2921	5960
2921	5960
2921	5960
2921	5960
2921	5960
2921	5960
2920	5960
2920	5960
2920	5960
2920	5959
2920	5959
2920	5959
2920	5959
2920	5959
2919	5959
2919	5959
2919	5959
2919	5959
2919	5959
2919	5959
2919	5959
2919	5959
2919	5959
2919	5958
2919	5958
2919	5958
2919	5958
2919	5958
2919	5958
2919	5958
2919	5958
2919	5958
2920	5958
2920	5958
2920	5958
2920	5957
2920	5957
2920	5957
2921	5957
2921	5957
2921	5957
2921	5957
2921	5957
2922	5957
2922	5957
2922	5957
2922	5957
2923	5957
2923	5957
2923	5957
2923	5957
2924	5957
2924	5957
2924	5957
2924	5957
2925	5957
2925	5956
2925	5956
2925	5956
2925	5956
2925	5956
2925	5956
2926	5956
2926	5956
2926	5956
2926	5956
2926	5956
2926	5956
2927	5956
2927	5956
2927	5956
2928	5956
2928	5956
2928	5956
2929	5956
2929	5956
2930	5956
2930	5956
2931	5956
2931	5956
2932	5956
2933	5956
2934	5956
2934	5956
2935	5956
2936	5956
2937	5956
2937	5956
2938	5956
2939	5956
2940	5956
2941	5956
2941	5956
2942	5956
2943	5957
2944	5957
2944	5957
2945	5957
2945	5957
2946	5957
2946	5957
2947	5957
2947	5958
2948	5958
2948	5958
2949	5958
2949	5958
2950	5958
2950	5958
2951	5959
2951	5959
2951	5959
2952	5959
2952	5959
2952	5959
2953	5960
2953	5960
2954	5960
2954	5960
2954	5960
2954	5961
2955	5961
2955	5961
2955	5961
2955	5961
2955	5961
2955	5962
2955	5962
2955	5962
2955	5962
2955	5962
2955	5962
2954	5963
2954	5963
2954	5963
2953	5963
2953	5963
2952	5964
2952	5964
2951	5964
2951	5964
2950	5964
2950	5965
2949	5965
2949	5965
2948	5965
2948	5965
2947	5966
2946	5966
2946	5966
2945	5966
2945	5967
2944	5967
2943	5967
2943	5968
2942	5968
2941	5968
2940	5968
2940	5969
2939	5969
2938	5969
2937	5969
2936	5969
2935	5970
2933	5970
2932	5970
2931	5970
2929	5970
2928	5971
2926	5971
2925	5971
2923	5971
2921	5971
2920	5971
2918	5972
2916	5972
2915	5972
2913	5972
2911	5972
2909	5972
2908	5972
2906	5973
2904	5973
2903	5973
2901	5973
2900	5973
2898	5973
2897	5973
2896	5974
2895	5974
2893	5974
2892	5974
2891	5974
2890	5975
2889	5975
2889	5975
2888	5975
2887	5975
2886	5975
2886	5976
2885	5976
2884	5976
2883	5976
2883	5976
2882	5976
2881	5977
2881	5977
2880	5977
2879	5977
2879	5977
2878	5977
2877	5977
2877	5978
2876	5978
2875	5978
2875	5978
2874	5978
2874	5978
2873	5978
2873	5979
2872	5979
2872	5979
2871	5979
2871	5979
2871	5979
2871	5979
2871	5979
2871	5980
2871	5980
2871	5980
2871	5980
2871	5980
2871	5980
2872	5980
2872	5981
2872	5981
2873	5981
2873	5981
2873	5981
2874	5981
2874	5981
2875	5981
2875	5982
2876	5982
2876	5982
2877	5982
2877	5982
2877	5982
2878	5982
2878	5982
2878	5983
2879	5983
2879	5983
2879	5983
2879	5983
2879	5983
2880	5983
2880	5983
2880	5983
2880	5984
2880	5984
2880	5984
2880	5984
2880	5984
2881	5984
2881	5984
2881	5984
2881	5984
2881	5984
2882	5984
2882	5984
2882	5984
2883	5984
2883	5984
2883	5984
2884	5984
2884	5985
2885	5985
2885	5985
2886	5985
2886	5985
2887	5985
2888	5985
2888	5985
2889	5985
2889	5985
2890	5985
2890	5985
2891	5985
2891	5985
2892	5985
2892	5985
2893	5985
2893	5985
2893	5985
2894	5985
2894	5985
2894	5985
2895	5985
2895	5985
2895	5985
2895	5985
2896	5985
2896	5986
2896	5986
2896	5986
2896	5986
2897	5986
2897	5986
2897	5986
2897	5986
2897	5986
2898	5986
2898	5986
2898	5986
2898	5986
2899	5986
2899	5986
2899	5986
2899	5986
2900	5986
2900	5986
2900	5986
2900	5986
2901	5986
2901	5986
2901	5986
2901	5986
2901	5986
2901	5986
2902	5986
2902	5986
2902	5986
2902	5986
2902	5986
2902	5986
2902	5986
2902	5986
2903	5986
2903	5986
2903	5986
2903	5986
2903	5986
2903	5986
2904	5986
2904	5986
2904	5986
2904	5986
2904	5986
2905	5986
2905	5986
2905	5985
2906	5985
2906	5985
2906	5985
2907	5985
2907	5985
2908	5985
2908	5985
2908	5985
2909	5985
2909	5985
2910	5985
2910	5985
2910	5985
2911	5985
2911	5985
2911	5985
2911	5985
2912	5985
2912	5985
2912	5985
2912	5985
2912	5985
2912	5985
2912	5985
2912	5984
2912	5984
2912	5984
2912	5984
2912	5984
2912	5984
2912	5984
2912	5984
2912	5984
2912	5984
2912	5984
2911	5983
2911	5983
2911	5983
2911	5983
2911	5983
2911	5983
2911	5983
2911	5983
2911	5983
2911	5983
2911	5983
2911	5983
2911	5982
2911	5982
2911	5982
2911	5982
2911	5982
2911	5982
2911	5982
2911	5982
2911	5982
2911	5982
2911	5982
2911	5982
2911	5982
2911	5982
2912	5982
2912	5982
2912	5982
2912	5982
2912	5982
2912	5982
2912	5982
2912	5982
2912	5982
2913	5982
2913	5982
2913	5982
2913	5982
2913	5982
2914	5982
2914	5982
2914	5982
2914	5982
2914	5982
2915	5982
2915	5982
2915	5982
2915	5981
2915	5981
2915	5981
2915	5981
2915	5981
2915	5981
2915	5981
2915	5981
2915	5981
2915	5981
2915	5980
2915	5980
2915	5980
2915	5980
2915	5980
2914	5980
2914	5980
2914	5980
2914	5980
2914	5979
2914	5979
2914	5979
2913	5979
2913	5979
2913	5979
2913	5979
2913	5979
2913	5979
2914	5979
2914	5979
2914	5979
2914	5979
2914	5978
2915	5978
2915	5978
2916	5978
2916	5978
2916	5978
2917	5978
2917	5978
2918	5978
2918	5978
2919	5978
2919	5978
2920	5978
2920	5978
2921	5978
2921	5977
2922	5977
2922	5977
2922	5977
2923	5977
2923	5977
2923	5977
2923	5977
2923	5977
2923	5977
2923	5977
2923	5977
2923	5977
2923	5976
2922	5976
2922	5976
2922	5976
2921	5976
2921	5976
2921	5976
2920	5976
2920	5976
2920	5976
2919	5976
2919	5976
2919	5976
2918	5976
2918	5976
2918	5976
2918	5976
2918	5976
2918	5976
2918	5976
2918	5976
2918	5975
2918	5975
2918	5975
2919	5975
2919	5975
2919	5975
2920	5975
2920	5975
2920	5975
2920	5975
2921	5975
2921	5975
2921	5974
2922	5974
2922	5974
2922	5974
2922	5974
2922	5974
2922	5974
2922	5974
2922	5974
2922	5974
2922	5973
2922	5973
2922	5973
2922	5973
2921	5973
2921	5973
2921	5973
2921	5973
2920	5973
2920	5973
2920	5973
2920	5973
2919	5973
2919	5973
2919	5973
2919	5973
2919	5973
2919	5972
2919	5972
2919	5972
2919	5972
2919	5972
2919	5972
2920	5972
2920	5972
2920	5972
2920	5972
2921	5972
2921	5972
2922	5972
2922	5972
2923	5972
2923	5972
2924	5971
2924	5971
2925	5971
2925	5971
2926	5971
2927	5971
2927	5971
2928	5971
2928	5971
2929	5971
2929	5971
2930	5971
2930	5970
2931	5970
2931	5970
2932	5970
2932	5970
2932	5970
2932	5970
2932	5970
2933	5970
2933	5970
2932	5970
2932	5970
2932	5969
2932	5969
2931	5969
2931	5969
2930	5969
2929	5969
2929	5969
2928	5969
2927	5969
2926	5969
2925	5968
2924	5968
2923	5968
2922	5968
2921	5968
2920	5968
2919	5968
2918	5968
2917	5968
2916	5967
2916	5967
2915	5967
2914	5967
2914	5967
2914	5967
2913	5967
2913	5967
2913	5967
2913	5967
2913	5967
2914	5967
2914	5967
2914	5966
2915	5966
2915	5966
2916	5966
2916	5966
2916	5966
2917	5966
2917	5966
2918	5966
2918	5966
2918	5966
2919	5966
2919	5966
2919	5966
2919	5966
2919	5966
2919	5966
2919	5965
2919	5965
2919	5965
2919	5965
2919	5965
2919	5965
2919	5965
2919	5965
2919	5965
2919	5965
2919	5965
2919	5965
2919	5964
2919	5964
2919	5964
2920	5964
2920	5964
2920	5964
2920	5964
2920	5964
2920	5964
2920	5964
2921	5964
2920	5964
2920	5964
2920	5964
2920	5964
2920	5964
2919	5964
2919	5964
2918	5964
2917	5964
2916	5964
2915	5963
2915	5963
2914	5963
2913	5963
2912	5963
2911	5963
2911	5963
2910	5963
2910	5963
2910	5963
2910	5963
2911	5963
2912	5963
2913	5962
2915	5962
2917	5962
2920	5962
2923	5962
2927	5962
2930	5962
2935	5962
2939	5962
2944	5961
2950	5961
2955	5961
2961	5961
2967	5961
2973	5961
2979	5961
2985	5961
2991	5961
2996	5961
3001	5960
3006	5960
3010	5960
3014	5960
3018	5960
3020	5960
3022	5960
3023	5960
3024	5960
3023	5960
3022	5960
3021	5960
3018	5960
3015	5960
3011	5960
3006	5960
3001	5960
2995	5960
2989	5960
2983	5960
2976	5960
2969	5960
2962	5960
2955	5960
2948	5960
2941	5960
2934	5960
2927	5960
2921	5959
2915	5959
2910	5959
2905	5959
2901	5959
2897	5959
2894	5959
2891	5959
2889	5959
2887	5959
2886	5959
2886	5959
2886	5959
2886	5959
2887	5959
2888	5959
2890	5959
2892	5959
2894	5959
2896	5959
2898	5959
2900	5959
2903	5958
2905	5958
2907	5958
2910	5958
2912	5958
2914	5958
2915	5958
2917	5958
2918	5958
2920	5958
2921	5958
2921	5958
2922	5958
2922	5958
2923	5958
2923	5958
2923	5958
2923	5957
2923	5957
2922	5957
2922	5957
2922	5957
2921	5957
2921	5957
2920	5957
2920	5957
2920	5957
2919	5957
2919	5957
2919	5957
2918	5957
2918	5957
2918	5957
2918	5957
2918	5957
2918	5957
2918	5957
2918	5957
2918	5957
2918	5957
2918	5957
2918	5957
2918	5957
2918	5956
2918	5956
2918	5956
2918	5956
2918	5956
2918	5956
2918	5956
2918	5956
2918	5956
2918	5956
2917	5956
2917	5956
2917	5956
2917	5956
2917	5956
2917	5956
2917	5956
2916	5956
2916	5956
2916	5956
2916	5956
2916	5956
2916	5956
2916	5956
2916	5956
2917	5956
2917	5956
2917	5956
2917	5956
2917	5956
2918	5956
2918	5956
2918	5956
2919	5956
2919	5956
2919	5956
2920	5956
2920	5955
2920	5955
2921	5955
2921	5955
2921	5955
2922	5955
2922	5955
2922	5955
2922	5955
2922	5955
2922	5955
2922	5955
2922	5955
2922	5955
2922	5954
2922	5954
2922	5954
2922	5954
2922	5954
2922	5954
2921	5954
2921	5954
2921	5954
2921	5954
2921	5954
2921	5954
2921	5954
2921	5954
2921	5954
2922	5954
2922	5954
2922	5954
2922	5954
2923	5954
2923	5954
2923	5954
2924	5954
2924	5954
2925	5954
2926	5954
2926	5954
2927	5954
2927	5954
2928	5954
2928	5954
2929	5954
2930	5954
2930	5954
2931	5954
2931	5954
2932	5954
2932	5954
2933	5954
2933	5954
2934	5954
2934	5954
2935	5954
2935	5954
2936	5954
2936	5954
2937	5954
2937	5954
2938	5954
2938	5954
2939	5954
2939	5954
2940	5955
2940	5955
2941	5955
2941	5955
2942	5955
2942	5955
2943	5955
2944	5955
2944	5955
2945	5955
2945	5955
2946	5956
2946	5956
2947	5956
2947	5956
2948	5956
2948	5956
2949	5956
2949	5956
2950	5957
2950	5957
2951	5957
2951	5957
2952	5957
2953	5957
2953	5958
2954	5958
2954	5958
2955	5958
2956	5958
2956	5959
2957	5959
2958	5959
2958	5959
2959	5959
2959	5960
2960	5960
2961	5960
2961	5960
2961	5960
2962	5960
2962	5961
2962	5961
2963	5961
2963	5961
2963	5961
2963	5962
2963	5962
2963	5962
2963	5962
2962	5962
2962	5963
2962	5963
2962	5963
2961	5963
2961	5963
2960	5964
2960	5964
2960	5964
2959	5964
2958	5965
2958	5965
2957	5965
2957	5965
2956	5965
2956	5966
2955	5966
2954	5966
2953	5966
2953	5967
2952	5967
2951	5967
2950	5967
2950	5968
2949	5968
2948	5968
2947	5968
2946	5968
2945	5969
2944	5969
2943	5969
2942	5969
2940	5970
2939	5970
2938	5970
2937	5970
2935	5970
2934	5971
2933	5971
2932	5971
2930	5971
2929	5971
2928	5972
2926	5972
2925	5972
2924	5972
2922	5972
2921	5973
2920	5973
2919	5973
2917	5973
2916	5973
2915	5973
2914	5974
2913	5974
2911	5974
2910	5974
2909	5974
2908	5975
2907	5975
2906	5975
2905	5975
2904	5975
2903	5975
2902	5976
2901	5976
2900	5976
2900	5976
2899	5976
2898	5976
2897	5977
2897	5977
2896	5977
2895	5977
2895	5977
2894	5977
2894	5978
2893	5978
2893	5978
2892	5978
2892	5978
2891	5978
2891	5979
2890	5979
2890	5979
2890	5979
2889	5979
2889	5979
2889	5979
2888	5980
2888	5980
2888	5980
2887	5980
2887	5980
2887	5980
2887	5980
2886	5980
2886	5980
2886	5981
2886	5981
2886	5981
2885	5981
2885	5981
2885	5981
2885	5981
2885	5981
2885	5981
2885	5981
2886	5982
2886	5982
2886	5982
2886	5982
2887	5982
2887	5982
2888	5982
2888	5982
2889	5983
2889	5983
2890	5983
2890	5983
2891	5983
2892	5983
2893	5983
2893	5983
2894	5984
2895	5984
2895	5984
2896	5984
2897	5984
2897	5984
2898	5984
2898	5984
2898	5985
2899	5985
2899	5985
2899	5985
2900	5985
2900	5985
2900	5985
2900	5985
2900	5985
2900	5985
2900	5985
2900	5986
2900	5986
2900	5986
2900	5986
2900	5986
2900	5986
2900	5986
2900	5986
2900	5986
2900	5986
2900	5986
2900	5986
2900	5986
2901	5986
