0	0
0	0
0	0
0	0
0	0
0	0
0	0
0	0
0	0
0	0
0	0
0	0
0	0
0	0
0	0
0	0
0	0
0	0
0	0
0	0
0	0
0	0
0	0
0	0
0	0
0	0
0	0
0	0
0	0
0	0
0	0
0	0
0	0
0	0
0	0
0	0
0	0
0	0
0	0
0	0
0	0
0	0
0	0
0	0
0	0
0	0
0	0
0	0
0	0
0	0
0	0
0	0
0	0
0	0
0	0
0	0
0	0
0	0
0	0
0	0
0	0
0	0
0	0
0	0
0	0
0	0
0	0
0	0
0	0
0	0
0	0
0	0
0	0
0	0
0	0
0	0
0	0
0	0
0	0
0	0
0	0
0	0
0	0
0	0
0	0
0	0
0	0
0	0
0	0
0	0
0	0
0	0
0	0
0	0
0	0
0	0
0	0
0	0
0	0
0	0
0	0
0	0
0	0
0	0
0	0
0	0
0	0
0	0
0	0
0	0
0	0
0	0
0	0
0	0
0	0
0	0
0	0
0	0
0	0
0	0
0	0
0	0
0	0
0	0
0	0
0	0
0	0
0	0
0	0
0	0
0	0
0	0
0	0
0	0
0	0
0	0
0	0
0	0
0	0
0	0
0	0
0	0
0	0
0	0
0	0
0	0
0	0
0	0
0	0
0	0
0	0
0	0
0	0
0	0
0	0
0	0
0	0
0	0
0	0
0	0
0	0
0	0
0	0
0	0
0	0
0	0
0	0
0	0
0	0
0	0
0	0
0	0
0	0
0	0
0	0
0	0
0	0
0	0
0	0
0	0
0	0
0	0
0	0
0	0
0	0
0	0
0	0
0	0
0	0
0	0
0	0
0	0
0	0
0	0
0	0
0	0
0	0
0	0
0	0
0	0
0	0
0	0
0	0
0	0
0	0
0	0
0	0
0	0
0	0
0	0
0	0
0	0
0	0
0	0
0	0
0	0
0	0
0	0
0	0
0	0
0	0
0	0
0	0
0	0
0	0
0	0
0	0
0	0
0	0
0	0
0	0
0	0
0	0
0	0
0	0
0	0
0	0
0	0
0	0
0	0
0	0
0	0
0	0
0	0
0	0
0	0
0	0
0	0
0	0
0	0
0	0
0	0
0	0
0	0
0	0
0	0
0	0
0	0
0	0
0	0
0	0
0	0
0	0
0	0
0	0
0	0
0	0
0	0
0	0
0	0
0	0
0	0
0	0
0	0
0	0
0	0
0	0
0	0
0	0
0	0
0	0
0	0
0	0
0	0
0	0
0	0
0	0
0	0
0	0
0	0
0	0
0	0
0	0
0	0
0	0
0	0
0	0
0	0
0	0
0	0
0	0
0	0
0	0
0	0
0	0
0	0
0	0
0	0
0	0
0	0
0	0
0	0
0	0
0	0
0	0
0	0
0	0
0	0
0	0
0	0
0	0
0	0
0	0
0	0
0	0
0	0
0	0
0	0
0	0
0	0
0	0
0	0
0	0
0	0
0	0
0	0
0	0
0	0
0	0
0	0
0	0
0	0
0	0
0	0
0	0
0	0
0	0
0	0
0	0
0	0
0	0
0	0
0	0
0	0
0	0
0	0
0	0
0	0
0	0
0	0
0	0
0	0
0	0
0	0
0	0
0	0
0	0
0	0
0	0
0	0
0	0
0	0
0	0
0	0
0	0
0	0
0	0
0	0
0	0
0	0
0	0
0	0
0	0
0	0
0	0
0	0
0	0
0	0
0	0
0	0
0	0
0	0
0	0
0	0
0	0
0	0
0	0
0	0
0	0
0	0
0	0
0	0
0	0
0	0
0	0
0	0
0	0
0	0
0	0
0	0
0	0
0	0
0	0
0	0
0	0
0	0
0	0
0	0
0	0
0	0
0	0
0	0
0	0
0	0
0	0
0	0
0	0
0	0
0	0
0	0
0	0
0	0
0	0
0	0
0	0
0	0
0	0
0	0
0	0
0	0
0	0
0	0
0	0
0	0
0	0
0	0
0	0
0	0
0	0
0	0
0	0
0	0
0	0
0	0
0	0
0	0
0	0
0	0
0	0
0	0
0	0
0	0
0	0
0	0
0	0
0	0
0	0
0	0
0	0
0	0
0	0
0	0
0	0
0	0
0	0
0	0
0	0
0	0
0	0
0	0
0	0
0	0
0	0
0	0
0	0
0	0
0	0
0	0
0	0
0	0
0	0
0	0
0	0
0	0
0	0
0	0
0	0
0	0
0	0
0	0
0	0
0	0
0	0
0	0
0	0
0	0
0	0
0	0
0	0
0	0
0	0
0	0
0	0
0	0
0	0
0	0
0	0
0	0
0	0
0	0
0	0
0	0
0	0
0	0
0	0
0	0
0	0
0	0
0	0
0	0
0	0
0	0
0	0
0	0
0	0
0	0
0	0
0	0
0	0
0	0
0	0
0	0
0	0
0	0
0	0
0	0
0	0
0	0
0	0
0	0
0	0
0	0
0	0
0	0
0	0
0	0
0	0
0	0
0	0
0	0
0	0
0	0
0	0
0	0
0	0
0	0
0	0
0	0
0	0
0	0
0	0
0	0
0	0
0	0
0	0
0	0
0	0
0	0
0	0
0	0
0	0
0	0
0	0
0	0
0	0
0	0
0	0
0	0
0	0
0	0
0	0
0	0
0	0
0	0
0	0
0	0
0	0
0	0
0	0
0	0
0	0
0	0
0	0
0	0
0	0
0	0
0	0
0	0
0	0
0	0
0	0
0	0
0	0
0	0
0	0
0	0
0	0
0	0
0	0
0	0
0	0
0	0
0	0
0	0
0	0
0	0
0	0
0	0
0	0
0	0
0	0
0	0
0	0
0	0
0	0
0	0
0	0
0	0
0	0
0	0
0	0
0	0
0	0
0	0
0	0
0	0
0	0
0	0
0	0
0	0
0	0
0	0
0	0
0	0
0	0
0	0
0	0
0	0
0	0
0	0
0	0
0	0
0	0
0	0
0	0
0	0
0	0
0	0
0	0
0	0
0	0
0	0
0	0
0	0
0	0
0	0
0	0
0	0
0	0
0	0
0	0
0	0
0	0
0	0
0	0
0	0
0	0
0	0
0	0
0	0
0	0
0	0
0	0
0	0
0	0
0	0
0	0
0	0
0	0
0	0
7	64
7	128
7	192
7	192
7	193
7	193
7	193
7	194
7	194
7	194
7	195
7	195
7	196
7	196
7	196
7	197
7	197
7	197
7	198
7	198
7	198
7	198
7	199
7	199
7	199
7	200
7	200
7	200
7	201
7	201
7	201
7	202
7	202
7	202
7	203
7	203
7	203
7	204
7	204
7	204
7	204
7	205
7	205
7	205
7	206
7	206
7	206
7	207
7	207
7	207
7	207
7	208
7	208
7	208
7	209
7	209
7	209
7	209
7	210
7	210
7	210
7	211
7	211
7	211
7	211
7	212
7	212
7	212
7	212
7	213
7	213
7	213
7	213
7	214
7	214
7	214
7	214
7	215
6	215
6	215
6	216
6	216
6	216
6	216
6	217
6	217
6	217
6	217
6	218
6	218
6	218
6	218
6	218
5	219
5	219
5	219
5	219
5	220
5	220
5	220
5	220
5	221
5	221
5	221
5	221
5	222
5	222
5	222
4	222
4	222
4	223
4	223
4	223
4	223
4	224
4	224
4	224
4	224
4	224
4	225
4	225
4	225
4	225
4	225
4	226
4	226
4	226
4	226
4	226
4	227
4	227
4	227
4	227
4	227
4	228
3	228
3	228
3	228
3	228
3	229
3	229
3	229
3	229
3	229
3	230
3	230
3	230
3	230
3	230
3	231
3	231
3	231
3	231
3	231
3	231
3	232
3	232
3	232
3	232
3	232
3	233
3	233
3	233
3	233
3	233
3	233
3	234
3	234
3	234
3	234
3	234
3	234
3	235
3	235
3	235
3	235
3	235
3	235
3	236
3	236
3	236
3	236
3	236
3	236
3	236
3	237
3	237
3	237
3	237
3	237
3	237
3	238
3	238
3	238
3	238
3	238
3	238
3	238
3	239
3	239
3	239
3	239
3	239
3	239
3	239
3	240
3	240
3	240
3	240
3	240
3	240
3	240
3	241
3	241
3	241
3	241
3	241
3	241
3	241
3	242
3	242
3	242
3	242
3	242
3	242
3	242
3	242
3	243
3	243
3	243
3	243
3	243
3	243
3	243
3	243
3	244
3	244
3	244
3	244
3	244
3	244
3	244
3	244
3	245
3	245
3	245
3	245
3	245
3	245
3	245
3	245
3	245
3	246
3	246
3	246
3	246
3	246
3	246
3	246
3	246
3	246
3	247
3	247
3	247
3	247
3	247
3	247
3	247
3	247
3	247
3	248
3	248
3	248
3	248
3	248
3	248
3	248
3	248
3	248
3	248
3	249
3	249
3	249
3	249
3	249
3	249
3	249
3	249
3	249
3	249
3	250
3	250
3	250
3	250
3	250
3	250
3	250
3	250
3	250
3	250
3	250
3	251
3	251
3	251
3	251
3	251
3	251
3	251
3	251
3	251
3	251
3	251
3	251
3	252
3	252
3	252
3	252
3	252
3	252
3	252
3	252
3	252
3	252
3	252
3	252
3	253
3	253
3	253
3	253
3	253
3	253
3	253
3	253
3	253
3	253
3	253
3	253
3	253
3	254
3	254
3	254
3	254
3	254
3	254
3	254
3	254
3	254
3	254
3	254
3	254
77	241
77	227
76	214
76	214
74	214
74	214
74	215
72	215
72	215
72	215
72	216
72	216
71	216
71	216
71	216
71	217
71	217
71	217
71	217
71	218
71	218
72	218
72	218
72	218
72	219
72	219
72	219
72	219
72	220
72	220
72	220
72	220
72	221
72	221
72	221
71	221
71	221
71	221
71	222
71	222
71	222
69	222
69	223
69	223
69	223
69	223
67	223
67	223
67	224
67	224
67	224
66	224
66	225
66	225
66	225
66	225
66	225
66	225
66	226
66	226
66	226
66	226
66	226
66	227
66	227
66	227
66	227
66	227
66	227
67	228
67	228
66	228
66	228
66	228
66	228
66	229
66	229
66	229
66	229
64	229
64	229
64	230
64	230
62	230
62	230
62	230
62	230
61	230
61	231
61	231
61	231
61	231
61	231
61	232
61	232
61	232
61	232
61	232
61	232
61	232
61	233
61	233
62	233
62	233
62	233
62	233
62	233
64	234
64	234
64	234
64	234
64	234
64	234
64	235
64	235
66	235
66	235
66	235
66	235
66	235
66	235
66	236
66	236
67	236
67	236
67	236
67	236
69	236
69	237
71	237
71	237
71	237
72	237
72	237
74	237
74	238
76	238
76	238
76	238
77	238
77	238
79	238
79	238
79	238
81	239
81	239
81	239
81	239
82	239
82	239
82	239
82	239
82	240
82	240
82	240
81	240
81	240
81	240
81	240
79	240
79	240
79	241
77	241
77	241
77	241
76	241
76	241
74	241
74	241
72	242
72	242
71	242
71	242
69	242
69	242
67	242
67	242
66	242
66	242
66	242
64	243
64	243
62	243
62	243
62	243
61	243
61	243
61	243
61	243
59	244
59	244
59	244
59	244
59	244
57	244
57	244
57	244
57	244
57	245
57	245
57	245
57	245
56	245
56	245
56	245
56	245
56	245
56	245
56	245
57	245
57	245
57	246
57	246
57	246
57	246
57	246
59	246
59	246
59	246
61	246
61	246
61	246
62	246
62	247
62	247
64	247
64	247
64	247
64	247
64	247
64	247
64	247
64	247
62	247
62	247
62	248
61	248
59	248
57	248
56	248
54	248
52	248
51	248
49	248
46	248
44	248
43	248
41	249
39	249
38	249
36	249
36	249
36	249
36	249
36	249
38	249
39	249
43	249
46	249
51	249
56	250
61	250
67	250
74	250
82	250
91	250
99	250
109	250
119	250
129	250
139	250
149	250
158	250
167	250
177	250
185	251
193	251
202	251
206	251
213	251
216	251
220	251
223	251
223	251
223	251
221	251
218	251
215	251
210	251
203	251
195	251
187	251
177	252
167	252
157	252
145	252
134	252
122	252
110	252
99	252
87	252
77	252
66	252
56	252
46	252
38	252
29	252
23	252
18	252
11	252
8	252
4	253
1	253
0	253
0	253
0	253
0	253
1	253
3	253
6	253
8	253
11	253
14	253
18	253
23	253
26	253
29	253
33	253
36	253
39	254
41	254
44	254
46	254
49	254
51	254
52	254
52	254
54	254
56	254
56	254
56	254
56	254
56	254
56	254
56	254
56	254
56	254
56	254
56	255
54	255
62	235
62	216
62	197
60	197
60	197
60	197
60	198
60	198
58	198
58	198
58	198
58	198
58	198
58	198
58	198
58	199
58	199
58	199
58	199
58	199
58	200
58	200
60	200
60	200
60	201
62	201
62	201
62	201
64	201
64	201
66	201
66	201
68	202
69	202
69	202
71	202
71	203
73	203
73	203
75	203
75	204
77	204
77	204
79	204
79	204
79	204
81	204
81	204
81	205
83	205
83	205
83	205
83	206
83	206
83	206
83	206
83	207
83	207
85	207
85	207
85	207
85	207
85	207
85	207
85	207
85	207
83	208
83	208
83	208
83	208
83	208
83	209
83	209
83	209
83	209
83	209
85	209
85	210
85	210
85	210
85	210
85	210
86	210
86	210
86	210
88	210
88	210
90	211
90	211
90	211
92	211
94	211
94	212
96	212
96	212
98	212
98	212
100	213
100	213
102	213
102	213
103	213
103	213
105	213
105	213
105	213
107	213
107	213
109	213
109	214
111	214
111	214
113	214
113	214
115	214
115	215
117	215
117	215
119	215
120	215
120	215
122	216
124	216
124	216
126	216
128	216
130	216
130	216
132	216
134	217
134	217
136	217
136	218
137	218
137	218
139	219
139	219
139	219
141	219
141	219
141	219
143	220
143	220
143	220
143	221
145	221
145	221
145	222
147	222
147	222
147	222
149	222
149	222
149	222
151	223
151	223
153	223
153	224
154	224
154	224
154	225
156	225
156	225
156	225
158	225
158	225
158	225
158	226
158	226
158	226
158	227
158	227
158	227
156	228
156	228
156	228
156	228
154	228
154	228
154	229
153	229
153	229
151	230
151	230
149	230
149	231
147	231
147	231
145	231
145	231
143	231
141	232
141	232
139	232
137	233
136	233
134	233
132	234
130	234
128	234
126	234
124	234
120	234
119	234
117	235
113	235
111	235
109	236
105	236
103	236
102	236
98	237
96	237
94	237
92	237
88	237
86	237
85	237
83	238
81	238
79	238
77	238
75	239
73	239
71	239
69	239
68	239
66	240
64	240
62	240
60	240
58	240
54	240
52	240
51	240
49	240
47	241
45	241
41	241
39	241
37	242
35	242
34	242
32	242
30	242
28	243
26	243
26	243
24	243
24	243
22	243
22	243
20	243
20	244
20	244
20	244
20	244
20	245
20	245
20	245
20	245
20	245
20	246
20	246
20	246
20	246
20	246
20	246
20	246
20	246
20	247
20	247
18	247
18	247
18	247
17	248
17	248
17	248
17	248
15	248
15	248
15	249
15	249
13	249
13	249
13	249
13	249
13	249
13	249
13	249
13	249
13	249
15	249
15	249
15	249
17	250
17	250
17	250
18	250
18	250
18	250
20	250
20	251
20	251
22	251
22	251
22	251
22	251
24	251
24	252
24	252
24	252
24	252
24	252
24	252
24	252
24	252
22	252
22	252
22	252
22	252
22	253
22	253
20	253
20	253
20	253
20	253
20	253
20	253
20	254
20	254
20	254
20	254
20	254
20	254
20	254
20	254
20	254
20	254
22	255
22	255
22	255
24	255
24	255
24	255
26	255
26	255
26	255
28	255
28	255
26	250
29	246
29	242
29	242
29	242
33	243
33	244
33	245
33	245
33	245
33	245
33	245
33	245
33	245
33	245
33	245
33	245
33	245
33	246
29	247
29	248
29	248
29	248
29	248
26	248
26	248
26	248
26	248
26	248
23	248
23	248
23	248
23	248
23	248
23	248
23	248
23	248
23	248
19	248
19	248
19	248
19	248
19	248
19	248
19	248
19	248
23	248
23	248
23	248
23	248
23	248
23	248
23	248
23	249
23	250
23	251
26	251
26	251
26	251
26	251
26	251
26	251
29	251
29	251
29	251
29	251
29	251
29	251
29	251
33	251
33	251
33	251
33	251
33	251
33	251
33	251
33	251
33	251
33	251
33	251
33	251
33	251
33	251
29	251
29	251
29	251
29	251
29	251
26	251
26	251
26	251
26	251
26	251
23	251
23	251
23	251
23	251
23	251
23	251
23	251
23	251
23	251
23	251
23	251
23	252
23	253
23	255
23	255
26	255
26	255
26	255
29	255
29	255
29	255
29	255
33	255
33	255
33	255
36	255
36	255
36	255
36	255
39	255
39	255
39	255
39	255
39	255
39	255
39	255
36	255
36	255
36	255
36	255
36	255
33	255
33	255
33	255
33	255
33	255
29	255
29	255
29	255
29	255
29	255
29	255
29	255
29	255
29	255
29	255
29	255
29	253
29	252
29	251
29	251
29	251
29	251
29	251
29	251
33	251
33	251
33	251
33	251
33	251
33	251
33	251
33	251
33	251
33	251
29	251
29	251
29	251
29	251
29	251
29	251
29	251
29	251
29	251
29	251
29	251
29	251
29	251
33	251
33	251
33	251
33	251
33	251
36	251
36	251
36	251
39	251
39	251
39	251
43	251
43	251
43	251
43	251
46	251
46	251
46	251
46	250
46	249
46	248
46	248
46	248
46	248
46	248
46	248
46	248
46	248
46	248
46	248
46	248
46	248
43	248
43	248
43	248
43	248
43	248
43	248
43	248
43	248
43	248
43	248
43	248
43	248
43	248
43	248
46	248
46	248
46	248
46	248
46	248
46	248
49	248
49	248
49	248
49	248
49	248
52	247
52	246
52	245
52	245
52	245
52	245
52	245
52	245
52	245
52	245
56	245
56	245
56	245
56	245
56	245
56	245
56	245
56	245
56	245
56	245
56	245
59	244
59	243
59	242
59	242
59	242
59	242
59	242
59	242
59	242
59	242
59	242
59	242
59	242
59	242
59	242
59	242
59	242
59	242
59	242
59	242
59	242
59	242
59	242
59	242
59	242
59	242
59	242
59	242
59	242
59	242
62	242
62	242
62	242
66	242
66	242
69	242
69	242
72	242
76	242
76	241
79	240
79	239
82	239
86	239
86	239
89	239
89	239
92	239
92	239
92	239
96	239
96	239
96	239
96	239
96	239
99	239
96	239
96	239
96	239
96	239
96	239
96	239
92	239
92	239
92	239
89	239
89	239
89	239
86	239
86	239
82	239
82	239
79	239
79	239
79	239
76	239
76	239
72	238
72	237
72	236
69	236
69	236
69	236
66	236
66	236
66	236
62	236
62	236
62	236
62	236
59	236
56	208
56	180
56	153
56	147
56	141
56	136
56	136
54	136
54	136
54	136
54	136
54	136
54	136
54	136
54	136
54	136
54	136
54	136
54	136
54	136
54	136
54	136
54	136
54	136
54	136
54	136
54	136
56	136
56	136
56	136
57	136
57	130
57	124
59	119
59	119
59	119
61	119
61	119
63	119
63	119
63	119
63	119
63	119
63	119
63	119
63	119
61	119
61	119
59	119
57	119
56	119
54	119
52	119
50	119
48	113
44	107
42	102
40	102
38	102
36	102
34	102
32	102
32	102
32	102
32	102
34	102
36	102
38	102
42	102
46	102
52	102
57	102
65	102
73	102
81	102
90	102
100	96
112	90
121	85
133	85
144	85
158	85
170	85
181	85
191	85
202	85
212	85
222	85
229	85
237	85
243	85
249	85
251	85
253	85
255	79
253	73
251	68
247	68
241	68
233	68
226	68
216	68
206	68
195	68
183	68
170	68
156	68
142	68
129	68
115	68
102	68
90	68
77	68
65	68
54	68
44	68
34	68
27	68
19	68
13	68
7	68
3	68
1	68
0	68
0	68
0	68
1	68
3	68
5	68
9	68
11	68
15	68
21	68
25	68
28	68
32	62
36	56
40	51
44	51
48	51
52	51
54	51
56	51
57	51
59	51
59	51
61	51
61	51
61	51
61	51
61	51
59	51
59	51
59	51
57	51
57	51
56	51
56	51
54	51
54	51
52	51
52	51
52	51
52	51
52	51
52	51
52	51
52	51
52	51
52	51
54	51
54	45
54	39
56	34
56	34
57	34
57	34
59	34
59	34
61	34
61	34
63	34
63	34
65	34
65	34
67	34
67	34
67	34
69	34
69	34
71	34
71	34
73	34
73	28
73	22
75	17
75	17
75	17
75	17
77	17
77	17
77	17
77	17
77	17
79	17
79	17
79	17
79	17
79	17
79	17
79	17
79	17
79	17
81	17
81	17
81	17
81	17
81	17
81	17
81	17
81	17
81	17
81	17
81	17
81	17
81	17
81	17
83	17
83	17
83	17
83	17
83	17
83	17
83	17
83	17
85	11
85	5
85	0
85	0
86	0
86	0
86	0
88	0
88	0
90	0
90	0
92	0
92	0
94	0
96	0
96	0
98	0
98	0
100	0
102	0
102	0
104	0
106	0
106	0
108	0
110	0
110	0
112	0
112	0
113	0
113	0
115	0
115	0
117	0
117	0
119	0
119	0
119	0
121	0
121	0
121	0
121	0
123	0
123	0
123	0
125	0
125	0
125	0
127	0
127	0
127	0
129	0
129	0
131	0
131	0
133	5
133	11
135	17
135	17
137	17
139	17
139	17
141	17
142	17
144	17
144	17
146	22
148	28
150	34
152	34
152	34
154	34
156	34
158	34
158	39
160	45
162	51
162	51
164	51
164	51
166	51
166	51
168	56
168	62
168	68
168	68
168	68
170	68
170	68
168	73
168	79
168	85
168	85
168	85
166	85
166	90
166	96
164	102
164	102
162	102
162	102
160	107
160	113
158	119
158	119
156	119
154	119
154	124
152	130
152	136
150	136
150	136
148	136
148	136
148	141
146	125
146	109
144	88
144	88
142	88
142	91
141	94
139	98
139	98
137	98
135	98
135	101
133	104
131	107
129	107
127	107
125	110
123	113
121	117
117	117
115	117
113	120
110	123
108	127
106	127
102	127
100	127
96	130
94	133
90	137
88	137
86	137
83	137
81	140
79	143
75	147
73	147
71	147
67	147
65	147
63	150
61	153
59	156
57	156
56	156
54	156
52	156
50	156
50	159
48	162
46	166
44	166
44	166
42	166
40	169
40	172
38	176
38	176
36	176
36	176
36	176
34	179
34	182
34	186
32	186
32	186
32	186
32	186
30	189
30	192
30	196
30	196
30	196
30	196
30	196
30	196
28	199
28	202
28	205
28	205
28	205
28	205
28	205
28	205
30	205
30	205
30	205
30	205
30	208
30	211
30	215
30	215
30	215
30	215
30	215
30	215
30	215
30	215
30	218
30	221
30	225
30	225
30	225
30	225
30	225
30	225
28	225
28	225
28	225
28	228
28	231
28	235
27	235
27	235
27	235
27	235
27	235
27	235
27	235
27	235
27	235
27	235
27	235
28	235
28	235
28	235
28	235
28	235
30	238
30	241
30	245
30	245
30	245
32	245
32	245
32	245
32	245
32	245
32	245
32	245
32	245
32	245
34	245
34	245
34	245
34	248
34	251
34	255
34	255
34	255
34	255
34	255
34	255
34	255
34	255
34	255
36	255
36	255
36	255
36	255
36	255
38	255
38	255
38	255
38	255
40	255
40	255
40	255
40	255
40	255
42	255
42	255
42	255
42	255
42	255
42	255
42	255
42	255
42	255
42	255
42	255
42	255
42	255
42	255
42	255
42	255
42	255
42	255
40	255
40	255
40	255
40	255
40	255
40	255
40	255
40	255
40	255
40	255
40	255
40	255
40	255
40	255
40	255
40	255
40	255
40	255
42	255
42	255
42	255
42	255
42	255
42	255
44	255
44	251
44	248
44	245
44	245
44	245
44	245
44	245
44	245
44	245
44	245
44	245
44	245
44	245
44	245
44	245
44	245
44	245
44	245
44	245
44	245
44	245
44	245
44	245
44	245
44	245
44	241
44	238
44	235
44	235
44	235
44	235
46	235
46	235
46	235
46	235
46	235
46	235
46	235
44	235
44	235
44	231
44	228
44	225
44	225
44	225
44	225
44	225
44	225
44	225
44	225
44	225
44	225
44	225
44	225
44	225
44	225
44	225
44	225
44	225
44	225
44	225
46	225
46	225
46	225
46	225
46	225
46	225
48	225
48	225
48	225
48	225
48	225
48	225
48	225
48	225
48	225
48	225
48	225
48	225
48	225
46	225
46	225
46	225
46	225
44	225
44	225
44	225
44	225
42	225
42	225
42	225
42	225
42	225
40	225
40	225
40	225
40	225
40	225
40	225
42	225
42	221
42	218
42	215
42	215
44	215
44	215
44	215
46	215
46	215
46	215
46	215
48	215
48	215
48	215
48	215
48	215
48	215
48	215
48	215
48	215
48	215
48	215
48	215
48	215
48	215
46	215
46	215
46	215
46	211
46	208
46	205
46	205
46	205
46	205
46	205
46	205
46	205
48	202
48	199
49	197
49	197
49	197
51	197
51	197
53	197
53	197
53	193
55	189
55	185
55	185
55	185
57	185
57	185
57	185
57	185
57	185
57	185
57	185
57	185
57	185
57	185
57	185
57	185
57	185
57	185
57	185
55	185
55	185
55	185
55	185
55	185
55	181
55	177
55	173
55	173
55	173
55	173
55	173
55	173
55	173
55	173
55	173
55	173
55	173
55	173
55	173
55	173
55	173
57	169
57	165
57	162
57	162
57	162
57	162
59	162
59	162
59	162
59	162
59	162
60	162
60	162
60	162
62	162
62	162
62	158
62	154
64	150
64	150
64	150
64	150
66	150
66	150
66	150
66	150
66	150
66	150
68	150
68	150
68	150
68	150
66	150
66	150
66	150
66	150
66	150
66	150
64	150
64	150
64	150
62	150
62	146
62	142
60	139
60	139
60	139
60	139
59	139
59	139
59	139
59	139
59	139
59	139
59	139
59	139
59	139
59	139
59	139
60	135
60	131
60	127
62	127
62	127
64	127
64	127
66	127
66	127
68	127
68	127
70	127
70	127
72	127
72	127
72	123
73	119
73	115
73	115
75	115
75	115
75	115
75	115
75	115
75	115
77	115
77	115
77	115
77	115
77	115
77	115
77	115
77	115
77	115
77	115
77	111
77	107
77	104
77	104
77	104
77	104
79	104
79	104
79	104
79	104
79	104
79	104
79	104
79	104
79	104
79	104
77	100
77	96
77	92
77	92
77	92
77	92
75	92
75	92
75	92
75	92
75	92
73	92
73	92
73	92
72	92
72	92
72	88
70	84
70	81
68	81
68	81
68	81
66	81
66	81
64	81
64	81
62	81
62	81
60	81
60	81
59	81
59	81
57	81
57	81
57	81
55	81
55	81
55	81
55	81
55	81
55	77
55	73
55	69
57	69
57	69
57	69
59	69
59	69
60	69
60	69
62	69
62	69
64	69
66	69
66	69
68	69
68	69
70	69
70	65
72	61
72	57
72	57
72	57
73	57
73	57
73	57
73	57
72	57
72	57
72	57
70	57
70	57
68	57
66	57
66	57
64	57
60	53
59	49
57	46
55	46
53	46
49	46
48	46
46	46
44	46
40	46
40	46
38	46
36	46
36	46
36	46
36	46
38	46
40	46
42	46
46	46
51	46
57	46
62	42
70	38
77	34
85	34
94	34
105	34
114	34
125	34
136	34
149	34
160	34
171	34
182	34
194	34
205	34
214	34
223	34
230	34
238	34
243	34
249	34
251	34
253	34
255	34
253	34
251	34
247	30
242	26
234	23
227	23
218	23
208	23
197	23
184	23
173	23
160	23
147	23
133	23
120	23
107	23
94	23
81	23
70	23
59	23
48	23
38	23
29	23
22	23
16	23
11	23
7	23
3	23
1	23
0	23
0	23
0	23
1	23
3	19
5	15
9	11
12	11
16	11
20	11
24	11
29	11
33	11
36	11
42	11
46	11
49	11
51	11
55	11
59	11
60	11
62	11
64	7
64	3
66	0
66	0
68	0
68	0
68	0
66	0
66	0
66	0
66	0
64	0
64	0
64	0
62	0
62	0
62	14
62	28
60	42
60	42
60	42
60	42
60	42
60	42
60	42
62	42
62	42
62	42
62	42
62	42
64	38
64	34
64	31
66	31
66	31
66	31
68	31
68	31
68	31
70	31
70	31
72	31
72	31
72	31
73	31
73	31
75	31
75	31
75	31
77	31
77	27
77	24
79	21
79	21
79	21
79	21
81	21
81	21
81	21
81	21
81	21
81	21
81	21
81	21
81	21
81	21
81	21
81	21
81	21
81	21
81	21
81	21
81	21
81	21
81	21
81	21
81	21
83	21
83	21
83	21
83	21
83	21
83	21
85	21
85	17
85	13
85	10
86	10
86	10
86	10
88	10
88	10
88	10
90	10
90	10
90	10
92	10
92	10
92	10
94	10
94	10
94	10
96	10
96	10
97	10
97	10
99	10
99	10
101	6
101	3
103	0
103	0
105	0
105	0
107	0
107	0
109	0
110	0
110	0
112	0
112	0
114	0
114	0
116	0
118	0
118	0
120	0
120	0
121	0
121	0
123	0
125	0
125	0
127	0
127	0
129	0
131	0
131	3
133	6
134	10
134	10
136	10
138	10
138	10
140	10
142	10
142	10
144	10
144	10
145	10
145	13
147	17
149	21
149	21
149	21
151	21
151	21
153	21
153	21
153	21
155	21
155	21
155	21
155	24
155	27
157	31
157	31
157	31
157	31
157	31
157	31
157	31
158	34
158	38
158	42
158	42
158	42
158	42
158	42
158	45
158	49
160	53
160	53
160	53
160	53
160	53
160	56
160	59
160	63
160	63
160	63
160	63
160	66
160	70
158	74
158	74
158	74
158	74
157	74
157	77
155	81
155	85
153	85
153	85
151	85
149	88
147	91
147	95
145	95
144	95
142	95
140	95
138	98
136	102
134	106
133	106
131	106
127	109
125	112
123	116
121	116
120	116
118	116
116	119
114	123
110	127
109	127
107	127
105	127
103	130
101	134
99	138
96	138
94	138
92	138
90	138
88	141
86	144
83	148
81	148
79	148
77	148
75	148
72	151
70	155
68	159
66	159
64	159
62	159
60	159
59	159
57	162
55	166
53	170
51	170
49	170
48	170
46	170
44	170
42	170
42	173
40	176
38	180
38	180
36	180
36	180
35	180
35	180
33	183
33	187
31	191
31	191
29	191
29	191
29	191
27	191
27	191
27	194
25	197
25	201
25	201
25	201
25	201
25	201
25	201
25	201
25	201
25	201
25	201
25	201
25	201
25	201
25	204
25	208
25	212
27	212
27	212
27	212
27	212
27	212
27	212
27	212
27	212
27	212
27	212
27	212
27	212
27	215
25	219
25	223
25	223
25	223
25	223
25	223
25	223
25	223
25	223
25	226
27	229
27	233
27	233
27	233
29	233
29	233
29	233
31	233
31	233
31	236
33	240
33	244
33	244
35	244
35	244
35	244
36	244
36	244
36	244
36	244
36	244
36	244
36	244
36	244
36	244
36	244
36	244
36	244
36	244
36	244
36	244
36	244
36	244
36	244
36	244
36	244
36	244
36	244
36	244
36	244
36	244
36	247
36	251
36	255
36	255
36	255
36	255
36	255
20	255
20	255
20	255
20	255
24	255
24	255
24	255
24	255
24	255
24	255
24	255
24	255
24	255
24	255
24	255
27	255
27	255
27	255
27	255
27	255
31	255
31	255
31	255
31	255
31	251
34	247
34	244
34	244
34	244
38	244
38	244
38	244
38	244
38	244
38	244
38	244
38	244
38	244
38	244
38	244
38	244
38	244
38	244
38	244
38	244
38	244
38	244
34	244
34	244
34	244
34	244
34	244
34	244
34	244
34	244
31	244
31	244
31	244
31	244
31	244
31	244
31	244
31	244
31	244
31	244
31	244
31	244
31	244
31	244
31	244
31	244
31	244
31	244
31	244
31	244
34	244
34	240
34	236
34	233
34	233
34	233
34	233
34	233
34	233
38	233
38	233
38	233
38	233
38	233
38	233
41	233
41	233
41	233
41	233
41	233
41	233
41	233
41	233
41	233
41	233
45	233
45	233
45	233
45	233
45	233
45	233
45	229
45	226
45	223
45	223
45	223
45	223
45	223
45	223
45	223
45	223
45	223
45	223
45	223
41	223
41	223
41	223
41	223
41	223
41	223
38	223
38	223
38	223
38	223
38	223
34	223
34	223
34	223
34	223
34	219
31	215
31	212
31	212
31	212
31	212
31	212
31	212
34	212
34	212
34	212
34	212
34	212
38	212
38	212
38	212
38	212
41	212
41	212
41	212
41	212
41	212
45	212
45	212
45	212
45	212
45	212
45	212
45	212
45	212
45	212
45	212
45	212
45	212
45	208
45	204
45	201
45	201
45	201
45	201
45	201
48	201
48	201
48	201
48	201
48	201
48	201
48	201
48	201
52	201
52	201
52	201
52	201
52	201
52	201
52	201
52	201
52	201
52	201
52	201
52	201
48	197
48	194
48	191
48	191
48	191
48	191
48	191
48	191
48	191
48	191
48	191
48	191
48	191
48	191
48	191
48	191
48	191
52	187
52	183
52	180
52	180
52	180
52	180
52	180
52	180
52	180
52	180
52	180
52	180
52	180
52	180
52	180
52	180
52	180
52	176
52	173
52	170
52	170
52	170
52	170
48	170
48	170
48	170
48	170
48	170
48	170
48	170
45	170
45	170
45	170
45	170
45	170
45	170
45	170
45	166
45	162
45	159
45	159
45	159
45	159
45	159
45	159
45	159
45	159
45	159
45	159
45	159
48	159
48	159
48	155
52	151
52	148
52	148
55	148
55	148
55	148
59	148
59	148
59	148
62	148
62	148
62	148
66	148
66	148
66	148
69	148
69	148
73	148
73	148
73	148
76	148
76	148
76	144
80	141
80	138
83	138
83	138
83	138
87	138
87	138
87	138
90	138
90	138
90	134
90	130
94	127
94	127
94	127
94	127
94	127
94	127
94	127
94	127
90	127
90	127
90	127
87	127
87	127
87	127
83	127
83	127
80	127
80	127
76	127
76	127
73	127
73	127
69	127
69	127
66	127
66	127
66	127
62	127
62	127
62	127
62	127
59	123
59	119
59	116
59	116
59	116
59	116
59	116
59	116
59	116
59	116
59	116
59	116
55	112
55	109
55	106
55	106
55	106
55	106
55	106
71	103
69	101
69	99
69	99
69	99
69	99
69	99
69	99
69	99
69	99
69	99
69	99
69	99
69	99
69	99
69	99
71	99
71	99
71	95
71	91
73	88
73	88
73	88
75	88
75	88
75	88
76	88
76	88
76	88
76	88
76	88
76	88
76	88
76	88
76	88
75	88
75	88
73	88
73	88
71	88
69	88
67	88
65	84
63	80
61	77
60	77
58	77
54	77
52	77
50	77
48	77
46	77
46	77
45	77
45	77
45	77
45	73
45	69
46	66
48	66
52	66
54	66
60	66
63	66
69	66
76	66
82	66
91	66
99	66
108	66
118	66
127	66
138	66
148	66
159	66
170	66
180	66
191	66
200	66
210	62
219	58
226	55
234	55
241	55
245	55
251	55
253	55
255	55
255	55
253	55
251	55
247	55
241	51
236	47
228	44
219	44
210	44
198	44
187	44
176	44
163	44
150	44
136	44
123	44
110	44
99	44
86	44
75	40
63	36
52	33
43	33
33	33
26	33
18	33
13	33
9	33
5	33
3	33
1	33
0	36
0	40
1	44
3	44
5	44
9	44
13	44
16	44
20	44
24	44
28	44
33	44
37	44
41	44
46	44
50	44
54	40
58	36
60	33
63	33
65	33
67	33
69	33
69	33
71	33
71	33
73	33
73	33
73	33
73	33
73	33
73	33
71	33
71	33
71	33
71	33
71	33
69	33
69	33
69	33
69	33
69	33
69	29
69	25
69	22
71	22
71	22
71	22
71	22
73	22
73	22
73	22
73	22
75	22
75	22
75	22
75	22
75	22
76	22
76	22
76	22
76	22
76	22
76	22
76	22
78	22
78	22
78	22
78	22
78	22
78	22
78	22
80	22
80	22
80	22
82	22
82	22
82	22
84	22
84	22
84	22
86	22
86	22
88	22
88	22
88	22
90	22
90	22
90	22
91	22
91	22
91	22
91	22
91	22
91	22
91	22
91	22
91	18
91	14
91	11
91	11
91	11
93	11
93	11
93	11
93	11
93	11
93	11
93	11
95	11
95	11
95	11
95	11
97	11
97	11
99	11
99	11
99	11
101	11
101	11
103	7
103	3
103	0
105	0
105	0
105	0
105	0
106	0
106	0
106	0
106	0
108	0
108	0
108	0
108	0
108	0
110	0
110	0
110	0
112	0
112	0
114	3
114	7
116	11
116	11
118	11
118	11
120	11
121	11
123	11
125	11
125	11
127	11
129	11
131	11
133	11
135	11
136	11
138	11
138	11
140	11
142	11
144	11
146	11
146	11
148	11
150	11
151	11
151	11
153	11
155	14
155	18
157	22
157	22
159	22
159	22
161	22
161	22
161	22
163	25
163	29
165	33
165	33
165	33
166	33
166	33
166	36
168	40
168	44
168	44
170	44
170	44
172	44
172	47
172	51
172	55
174	55
174	55
174	55
176	55
176	58
176	62
176	66
176	66
176	66
176	66
176	69
176	73
176	77
176	77
176	77
176	77
176	80
176	84
174	88
174	88
174	88
172	91
172	95
170	99
170	99
168	99
168	99
166	102
166	106
165	110
163	110
163	110
161	113
159	117
157	121
157	115
155	109
153	103
151	106
150	109
148	113
146	113
144	113
142	113
140	113
138	116
135	119
133	122
131	122
129	122
127	122
123	122
121	125
120	128
118	132
114	132
112	132
110	132
108	132
105	135
103	138
101	141
99	141
95	141
93	141
91	144
90	147
86	151
84	151
82	151
80	151
78	151
76	154
75	157
73	160
71	160
69	160
67	160
65	160
63	163
61	166
60	170
60	170
58	170
56	170
56	170
54	170
54	173
52	176
50	179
50	179
48	179
48	179
48	179
46	179
46	182
45	185
45	188
43	188
43	188
41	188
41	188
41	188
39	188
39	191
37	194
37	198
35	198
35	198
33	198
33	198
33	198
31	198
31	201
31	204
31	207
31	207
30	207
30	207
30	207
30	207
31	207
31	210
31	213
31	217
31	217
33	217
33	217
33	217
35	217
35	217
37	220
37	223
37	226
39	226
39	226
39	226
41	226
41	226
41	226
41	226
41	226
41	226
41	226
43	226
43	229
43	232
43	236
43	236
41	236
41	236
41	236
41	236
41	236
43	236
43	236
43	236
43	236
43	236
43	236
43	236
45	236
45	236
45	236
46	236
46	236
46	236
48	236
48	236
48	236
48	236
50	236
50	236
50	236
50	236
50	236
50	239
52	242
52	245
52	245
52	245
52	245
50	245
50	245
50	245
50	245
50	245
50	245
50	245
50	245
50	245
50	245
50	245
50	245
52	245
52	245
52	248
52	251
54	255
54	255
54	255
56	255
56	255
56	255
58	251
58	248
60	245
60	245
60	245
61	245
61	245
61	245
61	245
63	245
63	245
63	245
63	245
63	245
63	245
65	245
65	245
65	245
65	245
65	245
65	245
65	245
65	245
65	245
65	245
63	245
63	245
63	245
63	245
63	245
63	245
63	245
61	245
61	245
61	245
61	245
61	245
61	245
60	245
60	245
60	245
60	245
60	245
60	245
60	245
60	245
60	245
60	245
60	245
60	245
60	245
60	245
60	245
60	245
60	245
60	245
60	245
61	245
61	242
61	239
61	236
61	236
61	236
61	236
63	236
63	236
63	236
63	236
63	236
63	236
63	236
65	236
65	236
65	236
65	236
65	236
65	236
65	236
67	236
67	232
67	229
67	226
67	226
67	226
67	226
67	226
67	226
67	226
67	226
67	226
67	226
67	226
67	226
67	226
65	226
65	226
65	226
65	226
65	226
65	226
63	226
63	226
63	226
63	226
63	226
63	226
63	226
63	226
63	226
63	226
63	226
63	226
63	226
63	226
63	226
65	226
65	226
65	226
65	226
67	226
67	223
67	220
67	217
69	217
69	217
69	217
69	217
69	217
69	217
69	217
69	217
69	217
69	217
69	217
69	217
67	217
67	217
67	213
67	210
67	207
65	207
65	207
65	207
65	207
65	207
63	207
63	207
63	207
63	207
63	207
63	207
63	207
63	207
65	207
65	207
65	207
65	207
67	207
67	207
67	207
69	207
69	207
69	207
71	207
71	207
71	207
73	207
73	207
73	207
73	207
75	207
75	207
75	207
75	207
75	207
75	207
75	207
76	204
76	201
76	198
76	198
57	195
57	193
57	191
55	191
55	191
55	191
55	191
55	191
55	191
55	191
53	191
53	191
53	187
53	183
53	180
51	180
51	180
51	180
51	180
51	180
49	180
49	180
49	180
49	180
49	180
49	180
49	180
49	180
49	180
49	180
49	180
49	180
49	180
49	180
49	176
51	173
51	170
51	170
51	170
53	170
53	170
53	170
55	170
55	170
55	170
55	170
55	170
57	170
57	170
57	170
57	170
57	170
57	170
57	170
57	170
57	166
57	162
55	159
55	159
55	159
55	159
55	159
53	159
53	159
53	159
53	159
51	159
51	159
51	159
51	159
51	159
51	155
51	151
51	148
51	148
51	148
51	148
51	148
51	148
53	148
53	148
53	148
53	144
55	141
55	138
55	138
55	138
57	138
57	138
57	138
57	138
57	138
58	138
58	138
58	138
58	138
58	138
58	134
58	130
58	127
58	127
58	127
58	127
58	127
58	127
58	127
58	127
58	127
58	127
58	127
58	127
58	127
58	127
58	127
58	127
58	127
58	127
58	127
58	123
60	119
60	116
60	116
60	116
60	116
60	116
60	116
60	116
60	116
60	116
60	116
62	116
62	116
62	112
62	109
62	106
62	106
64	106
64	106
64	106
64	106
66	106
66	106
66	106
68	106
68	106
70	106
70	106
70	106
72	106
72	106
74	106
74	106
74	106
76	106
76	106
76	106
78	106
78	102
78	98
78	95
78	95
78	95
78	95
78	95
78	95
78	95
76	95
76	95
76	95
74	95
74	95
74	95
72	95
72	91
70	88
70	85
68	85
68	85
66	85
66	85
64	85
64	85
62	85
62	85
60	85
60	85
60	85
58	81
58	77
57	74
57	74
55	74
55	74
55	74
53	74
53	74
53	74
53	74
51	74
51	74
51	74
51	74
51	74
51	74
51	74
51	74
51	74
53	74
53	74
53	74
53	70
55	66
55	63
57	63
57	63
57	63
58	63
58	63
60	63
60	63
62	63
62	63
62	63
64	59
64	56
64	53
64	53
64	53
64	53
64	53
64	53
64	53
64	53
62	53
62	49
60	45
58	42
57	42
55	42
53	42
51	42
49	42
47	42
45	42
43	42
41	42
39	42
38	42
36	42
34	42
34	42
32	42
32	42
34	42
34	42
36	42
39	42
43	42
47	42
53	42
58	42
64	42
72	42
81	42
89	42
98	42
110	42
119	42
131	42
142	42
154	42
165	42
176	42
188	42
199	42
209	42
218	42
228	42
235	42
241	42
247	42
251	42
253	38
255	34
255	31
253	31
249	31
243	31
237	31
230	31
222	31
213	31
201	31
190	31
178	31
165	31
152	27
138	24
125	21
112	21
98	21
87	21
74	21
62	21
53	21
43	21
34	21
26	21
19	21
13	21
9	21
5	21
1	21
0	21
0	17
0	13
0	10
1	10
3	10
5	10
9	10
13	10
15	10
19	10
22	10
26	10
30	10
34	10
38	10
39	10
43	10
45	10
49	10
51	10
53	10
55	10
57	10
57	10
58	10
58	10
60	10
60	10
60	10
60	10
60	10
62	10
62	10
62	10
62	10
62	6
62	15
62	24
62	36
62	36
62	36
62	36
60	36
60	36
60	36
60	36
60	36
60	36
60	36
60	36
60	36
60	36
60	36
60	36
60	36
60	36
60	36
60	36
60	36
60	36
60	36
62	36
62	33
62	30
62	27
64	27
64	27
64	27
66	27
66	27
66	27
68	27
68	27
68	27
70	27
70	27
70	27
70	27
70	27
72	27
72	27
72	27
72	27
72	27
74	27
74	27
74	27
74	27
74	27
76	27
76	27
76	27
76	24
78	21
78	18
78	18
79	18
79	18
81	18
81	18
83	18
83	18
83	18
85	18
85	18
87	18
87	15
87	12
89	9
89	9
89	9
91	9
91	9
91	9
91	9
93	9
93	9
93	9
93	9
93	9
95	9
95	9
95	9
95	9
95	9
97	9
97	9
97	9
98	9
98	9
98	9
100	9
100	9
100	9
102	9
102	9
104	9
104	9
104	9
106	9
106	9
108	9
108	9
110	6
110	3
112	0
112	0
112	0
114	0
114	0
116	0
116	0
117	3
119	6
119	9
121	9
121	9
123	9
123	9
125	9
127	9
127	9
129	9
129	9
131	9
133	9
133	9
135	9
137	12
137	15
138	18
140	18
140	18
142	18
144	18
144	18
146	18
148	18
148	21
150	24
150	27
152	27
154	27
154	27
156	27
156	27
157	30
157	33
159	36
159	36
161	36
161	36
163	36
163	39
165	42
165	45
165	45
167	45
167	45
167	48
169	51
169	54
169	54
171	54
171	57
171	60
171	63
171	63
171	63
171	63
171	66
171	69
171	72
171	72
171	72
171	75
169	78
169	81
169	81
167	81
165	81
165	84
163	87
161	91
161	91
159	91
157	91
156	94
154	97
152	100
150	100
148	100
146	100
144	103
142	106
138	109
137	109
135	109
133	109
131	112
129	115
127	118
125	118
123	118
121	118
119	118
117	121
116	124
112	127
110	127
108	127
106	127
104	127
102	130
100	133
97	136
95	136
93	136
89	136
87	139
85	142
81	145
79	145
78	145
74	145
72	148
70	151
68	154
64	154
62	154
60	154
58	157
57	160
55	163
53	163
51	163
49	163
47	163
45	166
45	169
43	173
41	173
41	173
39	173
38	173
38	176
36	179
34	182
34	182
32	182
32	182
30	182
30	185
28	188
28	191
26	191
26	191
24	191
24	191
22	191
22	194
22	197
20	200
20	200
20	200
20	200
20	200
20	200
20	203
20	206
20	209
20	209
20	209
20	209
20	209
20	209
20	209
20	209
20	212
20	215
20	218
20	218
22	218
22	218
22	218
22	218
22	218
22	218
22	218
22	218
22	218
22	221
22	224
22	227
22	227
22	227
22	227
22	227
22	227
24	227
24	227
24	230
24	233
26	236
26	236
26	236
28	236
28	236
28	236
30	239
30	242
30	245
32	245
32	245
32	245
34	245
34	245
34	245
34	245
34	245
34	245
34	248
34	251
34	255
34	255
34	255
34	255
34	255
32	255
32	255
32	255
32	255
32	255
32	255
30	255
30	255
30	255
30	255
30	255
30	255
30	255
30	255
30	255
30	255
30	255
30	255
16	252
16	249
19	246
19	246
19	246
19	246
22	246
22	246
22	246
22	246
22	246
25	246
25	246
25	246
25	249
25	252
29	255
29	255
29	255
29	255
29	255
29	255
29	255
29	255
32	255
32	255
32	255
32	255
32	255
32	255
32	255
32	255
32	255
32	255
35	255
35	255
35	255
35	255
35	255
35	255
35	255
35	255
35	255
38	255
38	255
38	255
38	255
38	255
38	255
38	255
38	252
35	249
35	246
35	246
35	246
35	246
35	246
35	246
35	246
35	246
35	246
35	246
35	246
35	246
35	246
35	246
35	246
35	246
35	246
35	246
35	246
38	246
38	246
38	246
38	246
38	246
38	243
41	240
41	237
41	237
41	237
41	237
41	237
41	237
41	237
41	237
41	237
41	237
41	237
41	237
41	237
41	237
38	237
38	237
38	237
38	237
38	237
38	237
38	237
38	237
35	234
35	231
35	228
35	228
35	228
35	228
35	228
38	228
38	228
38	228
38	228
38	228
38	228
41	228
41	228
41	228
41	228
41	228
45	228
45	228
45	228
45	225
45	222
48	219
48	219
48	219
48	219
48	219
48	219
48	219
48	219
48	219
48	219
48	219
48	219
48	219
48	219
48	219
48	219
48	216
48	213
48	211
45	211
45	211
45	211
45	211
48	211
48	211
48	211
48	211
48	211
48	211
48	211
48	211
48	211
48	211
48	211
48	211
48	211
48	211
48	211
48	211
48	211
51	211
51	211
51	211
51	211
51	211
51	211
51	211
51	211
51	208
51	205
51	202
51	202
51	202
51	202
51	202
51	202
51	202
48	202
48	202
48	202
48	202
48	202
48	202
48	202
45	202
45	199
45	196
45	193
45	193
45	193
41	193
41	193
41	193
41	193
41	193
41	193
41	193
41	193
41	193
41	193
41	193
41	193
45	193
45	193
45	193
45	193
45	193
45	193
48	193
48	193
48	193
48	193
48	193
48	193
51	193
51	190
51	187
51	184
51	184
51	184
51	184
51	184
51	184
51	184
51	184
51	184
51	184
51	184
51	184
51	184
51	184
51	184
51	184
51	184
51	184
51	184
51	184
51	181
51	178
51	175
48	175
48	175
48	175
48	175
48	175
48	175
48	175
48	175
45	175
45	175
45	175
45	172
45	169
45	167
45	167
45	167
41	167
41	167
41	167
41	167
41	167
41	167
41	167
41	167
41	164
41	161
41	158
41	158
41	158
41	158
41	158
41	158
41	158
38	158
38	158
38	158
38	158
38	158
38	158
38	158
38	158
38	158
38	158
38	158
38	158
41	158
41	158
41	158
41	158
45	158
45	158
45	155
48	152
48	149
51	149
51	149
51	149
54	149
54	149
58	149
58	149
58	149
61	149
61	149
61	149
61	149
61	146
61	143
61	140
61	140
61	140
58	140
58	140
58	140
58	140
58	140
54	140
54	140
54	137
54	134
54	131
54	131
54	131
54	131
54	131
58	131
58	131
58	131
61	131
61	131
64	131
67	131
67	131
71	131
74	131
74	131
77	131
80	131
83	131
83	131
87	131
87	131
90	131
90	131
93	131
93	131
96	131
84	106
84	81
84	56
84	56
84	56
84	51
84	46
84	42
84	42
84	42
84	42
84	42
84	42
82	42
82	42
82	42
82	42
80	42
80	37
78	32
78	28
78	28
77	28
75	28
75	28
73	28
73	28
71	28
71	28
69	28
67	28
67	28
66	28
66	28
64	28
62	28
62	28
60	28
60	28
60	28
58	28
58	28
58	28
58	28
56	28
56	28
56	28
56	28
56	28
56	28
56	28
58	28
58	23
58	18
58	14
58	14
60	14
60	14
60	14
60	14
62	14
62	14
62	14
64	14
64	14
64	14
66	14
66	14
66	14
67	14
67	14
67	14
67	14
69	14
69	14
69	14
69	14
69	14
69	14
67	14
67	14
67	14
66	14
64	14
62	14
62	14
60	14
56	14
55	14
53	14
51	14
49	14
47	14
45	14
44	14
44	14
42	9
42	4
42	0
44	0
45	0
47	0
51	0
55	0
58	0
64	0
71	0
78	0
86	0
95	0
104	0
113	0
124	0
135	0
146	0
157	0
168	0
179	0
190	0
201	0
210	0
220	0
229	0
236	0
242	0
247	0
251	0
255	0
255	0
255	0
253	0
249	0
245	0
240	0
232	0
223	0
214	0
205	0
194	0
181	0
168	0
155	0
143	0
130	4
117	9
104	14
91	14
78	14
67	14
56	14
47	14
38	14
29	14
22	14
16	14
11	14
5	14
3	14
0	14
0	14
0	14
0	14
0	14
1	14
5	14
9	14
11	14
14	14
20	14
23	14
27	14
31	14
36	14
40	14
44	14
47	14
49	14
53	14
55	14
58	14
60	14
60	14
62	14
62	14
64	14
64	14
64	14
64	14
64	18
62	23
62	28
62	28
60	28
60	28
60	28
58	28
58	28
58	28
56	28
56	28
56	28
56	28
56	28
58	28
58	28
58	32
58	37
60	42
60	42
62	42
62	42
62	42
64	42
64	42
66	42
66	42
66	42
67	42
67	42
67	42
69	42
69	42
69	42
69	42
71	42
71	42
71	42
71	42
71	42
71	42
73	42
73	42
73	42
73	42
73	42
75	42
75	42
75	42
77	42
77	42
77	42
78	42
78	42
78	42
80	42
80	42
80	42
82	42
82	42
84	42
84	42
84	42
86	42
86	42
86	42
88	46
88	51
88	56
88	56
89	56
89	56
89	56
89	56
91	56
91	56
91	56
91	56
91	56
91	56
91	56
93	56
93	56
93	56
93	56
93	60
93	65
93	70
93	70
93	70
93	70
93	70
93	70
93	70
93	75
93	80
93	85
93	85
95	85
95	85
95	85
95	85
95	89
97	94
97	99
97	99
99	99
99	99
100	99
100	99
102	99
104	99
104	99
106	99
108	99
108	99
110	99
111	99
113	99
115	99
115	99
117	103
119	108
121	113
121	113
122	113
124	113
126	113
126	113
128	113
128	113
130	113
132	117
132	122
133	127
133	127
135	127
135	127
137	131
137	136
137	141
139	141
139	141
141	141
141	145
143	150
143	155
144	155
144	155
146	160
146	165
148	170
148	170
150	174
150	179
152	184
152	184
154	184
154	188
155	193
155	198
157	155
157	113
157	72
159	74
159	76
159	76
161	77
161	79
161	81
161	81
161	82
161	84
161	86
161	86
161	87
161	89
159	91
159	91
159	92
159	94
157	96
157	96
157	98
155	100
155	102
154	102
154	103
154	105
152	107
152	107
150	108
148	110
148	112
146	112
144	113
144	115
143	117
141	118
139	120
137	122
135	122
133	123
132	125
130	127
128	127
126	128
124	130
121	132
119	132
117	132
115	133
113	135
110	137
108	137
106	138
104	140
100	142
99	142
97	142
95	143
91	145
89	147
86	147
84	147
82	149
78	151
77	153
73	153
71	154
67	156
66	158
62	158
60	158
56	159
53	161
51	163
47	163
45	164
42	166
40	168
36	168
34	168
31	169
29	171
27	173
23	173
22	173
20	174
18	176
16	178
14	178
12	178
12	178
11	179
9	181
9	183
7	183
7	183
5	184
5	186
5	188
3	188
3	188
3	188
3	189
3	191
3	193
3	193
1	193
1	194
1	196
3	198
3	198
3	198
3	198
3	200
3	202
3	204
3	204
3	204
3	205
5	207
5	209
5	209
5	209
5	209
5	209
5	210
5	212
5	214
5	214
5	214
5	214
5	214
5	214
5	214
5	214
5	214
5	214
5	214
5	215
5	217
7	219
7	219
7	219
7	219
7	219
7	219
7	219
7	219
7	219
7	219
9	219
9	219
9	220
9	222
9	224
9	224
9	224
9	224
9	224
9	224
9	224
9	224
9	225
7	227
7	229
7	229
7	229
7	229
5	229
5	229
5	229
5	229
5	230
5	232
3	234
3	234
3	234
3	234
3	234
3	234
3	234
3	234
3	234
5	234
5	234
5	234
5	235
7	237
7	239
7	239
9	239
9	239
9	239
11	239
11	239
12	239
12	239
12	239
14	239
14	239
16	239
16	239
18	239
18	239
20	239
20	239
22	239
22	239
22	239
23	239
23	239
25	239
25	240
27	242
27	244
27	244
29	244
29	244
31	244
31	244
31	244
33	244
33	244
34	244
34	244
34	244
36	244
36	244
38	244
38	244
38	244
40	244
40	244
40	244
42	244
42	244
42	244
44	244
44	244
45	244
45	244
45	244
47	244
47	244
47	244
49	244
49	244
49	244
49	244
51	244
51	244
51	244
53	244
53	244
53	244
53	244
53	244
55	244
55	244
55	244
55	244
55	244
55	244
55	244
55	244
55	244
55	244
55	244
55	244
55	244
55	244
55	244
53	244
53	244
53	244
53	244
53	244
51	244
51	244
51	244
51	244
51	244
49	244
49	244
49	245
49	247
49	249
47	249
47	249
47	249
47	249
47	249
47	249
47	249
45	249
45	249
45	249
45	249
45	249
45	249
45	249
45	249
45	251
45	253
47	255
47	255
47	255
47	255
49	255
49	255
49	255
51	255
51	255
53	255
53	255
55	255
55	255
56	255
56	255
58	255
60	255
60	255
62	255
62	255
64	255
64	255
66	255
66	255
67	255
67	255
67	255
69	255
69	255
69	255
69	255
69	255
69	255
69	255
69	255
69	255
69	255
67	255
67	255
67	255
67	255
67	255
66	255
66	255
46	238
46	221
46	204
45	204
45	204
45	204
45	204
45	204
45	204
45	204
45	204
45	204
45	204
45	204
45	204
45	202
46	200
46	198
46	198
46	198
46	198
47	198
47	198
47	198
47	198
47	198
49	198
49	196
49	194
49	192
50	192
50	192
50	192
51	192
51	192
51	192
53	192
53	192
54	192
54	192
55	192
55	192
57	192
57	192
58	192
59	192
59	192
61	192
62	192
63	192
63	192
65	192
66	192
67	192
69	192
70	192
71	192
73	192
74	192
75	192
77	192
78	192
79	192
81	192
82	192
82	192
83	192
85	192
86	192
87	192
88	192
90	192
91	192
92	192
94	192
94	192
95	192
96	192
98	192
99	192
100	192
100	192
102	192
103	192
103	192
104	192
104	192
106	192
106	192
107	192
107	192
107	192
108	192
108	192
108	192
108	192
108	192
108	192
108	192
108	192
108	192
108	192
107	192
107	192
107	192
107	192
107	192
106	192
106	192
106	192
106	192
106	192
106	192
106	192
106	194
106	196
106	198
106	198
106	198
106	198
104	198
104	198
104	198
104	198
104	198
104	198
103	198
103	200
102	202
102	204
100	204
100	204
99	204
98	204
96	204
95	204
94	204
92	204
91	204
90	204
88	205
87	207
86	209
85	209
83	209
83	209
82	209
81	209
79	209
79	209
78	209
78	209
78	209
78	209
78	209
78	209
78	209
79	209
79	209
79	209
81	209
82	211
82	213
83	215
83	215
85	215
85	215
86	215
86	215
86	215
86	215
86	215
86	215
85	215
85	217
83	219
82	221
82	221
81	221
79	221
78	221
77	221
75	221
74	222
73	224
71	226
71	226
70	226
70	226
70	226
70	226
70	226
71	226
73	228
73	230
74	232
77	232
78	232
79	232
81	232
83	232
85	232
86	232
87	232
88	232
90	232
91	232
91	232
92	234
92	236
91	238
91	238
90	238
88	238
87	238
86	238
85	238
83	238
81	238
79	238
77	238
74	238
73	238
70	238
69	238
67	238
65	238
63	238
62	239
61	241
59	243
59	243
58	243
57	243
57	243
55	243
54	243
54	243
53	243
51	243
50	243
50	243
47	243
46	243
45	243
43	245
41	247
39	249
37	249
34	249
33	249
30	249
27	249
25	249
23	249
21	249
19	249
18	249
17	249
15	249
15	249
15	251
15	253
17	255
18	255
19	255
22	253
25	251
27	249
30	249
34	249
38	249
43	249
47	249
53	249
57	249
62	247
66	245
71	243
75	243
79	243
83	241
86	239
88	238
90	238
91	238
91	236
91	234
91	232
90	232
88	232
86	230
83	228
79	226
75	226
73	226
69	226
65	226
61	226
58	226
55	226
53	226
51	226
50	226
50	226
51	226
54	226
57	226
62	226
67	226
73	226
81	226
88	226
98	226
108	226
119	228
131	230
143	232
155	232
167	232
177	232
189	232
200	234
211	236
220	238
229	238
237	238
243	238
248	238
252	239
255	241
255	243
255	243
252	243
249	243
244	243
237	243
231	243
221	243
212	243
203	245
191	247
180	249
168	249
156	249
143	249
131	249
119	249
108	249
96	249
97	180
89	111
80	43
71	43
64	43
58	43
53	43
48	43
44	43
42	43
39	43
38	43
38	43
38	43
38	43
39	43
42	43
43	43
45	43
49	43
51	43
54	43
58	43
60	43
63	43
65	43
68	43
70	43
73	43
75	43
76	43
77	43
79	43
80	43
81	43
81	43
81	43
82	43
82	43
82	43
82	43
82	43
81	43
81	43
81	43
81	43
81	43
81	43
81	43
81	43
81	43
81	43
81	43
81	43
82	43
82	43
82	43
82	43
84	43
84	43
84	43
84	43
84	43
84	43
84	43
84	43
84	43
84	43
84	43
84	43
82	43
82	43
82	44
82	46
82	48
82	48
82	48
82	48
82	48
84	48
84	48
85	48
85	48
86	48
87	48
89	48
89	48
90	48
91	48
92	48
94	48
95	48
96	48
97	48
99	49
99	50
100	52
100	52
100	52
100	52
100	52
100	52
100	52
99	52
97	53
97	55
96	57
95	57
94	57
91	57
90	58
89	59
87	61
86	61
85	61
84	61
84	62
82	63
82	65
82	65
82	66
82	68
82	70
84	70
85	71
85	72
86	74
89	74
90	75
91	77
92	79
95	79
96	80
97	81
99	83
100	83
102	83
102	84
103	85
105	87
105	87
106	88
106	90
106	92
106	92
106	92
106	93
106	94
106	96
106	96
106	96
106	97
106	99
105	101
106	101
106	101
106	102
106	103
106	105
107	105
107	105
108	106
108	107
110	109
111	109
111	110
112	112
112	114
113	115
113	116
115	118
115	118
115	119
115	121
115	123
115	124
113	125
113	127
113	128
112	129
112	131
111	132
111	134
110	136
110	137
110	138
110	140
110	140
111	141
111	143
112	145
113	146
115	147
117	149
118	150
121	151
123	153
126	154
128	156
131	158
133	159
136	160
139	163
142	165
144	167
147	168
148	169
151	171
152	172
153	173
154	175
154	176
155	178
155	181
155	182
154	184
154	185
153	187
152	189
151	190
149	191
148	193
147	194
146	195
143	197
142	198
141	200
139	202
137	203
136	204
134	206
133	207
132	209
131	211
129	212
128	213
128	215
127	215
126	216
125	217
123	219
122	220
121	222
120	224
117	224
116	225
115	226
112	228
111	228
108	229
106	231
105	233
102	234
100	235
97	237
96	237
94	238
91	239
89	241
87	241
85	241
84	242
81	244
80	246
77	246
76	246
75	246
74	247
73	248
71	250
70	250
69	250
68	250
66	250
65	250
64	250
63	250
61	250
60	250
58	251
56	253
55	255
54	255
51	255
50	255
48	255
47	255
44	255
42	255
40	255
38	255
37	255
34	255
33	255
30	255
29	255
27	255
25	255
24	255
23	255
22	255
21	255
19	255
18	255
18	255
17	255
17	255
17	255
16	255
16	255
16	255
16	255
16	255
14	255
14	255
14	255
14	255
14	255
14	255
13	255
13	255
13	255
13	255
12	255
12	255
11	255
11	255
9	253
9	251
8	250
8	250
7	250
7	250
6	250
6	250
4	250
4	250
3	250
3	248
3	247
2	246
2	246
2	246
1	246
1	246
1	246
1	246
0	246
0	244
0	242
5	243
5	246
3	249
3	249
3	249
3	249
1	249
1	249
1	249
1	249
0	249
0	249
0	248
0	247
0	247
0	247
0	247
0	247
0	247
0	247
0	247
1	246
1	246
1	246
3	246
5	246
5	246
7	245
7	244
9	244
11	244
13	244
13	243
15	242
17	242
19	242
21	241
21	240
23	240
25	240
25	240
27	239
27	238
29	238
29	238
29	237
31	237
31	237
31	237
31	237
31	237
31	236
31	235
31	235
31	235
31	235
31	234
31	233
31	233
31	233
31	233
31	232
31	231
29	231
29	231
31	231
31	230
31	230
31	230
31	229
31	228
31	228
33	227
33	226
33	226
33	225
35	224
35	224
35	223
37	222
37	221
39	221
39	220
39	219
41	218
41	217
41	216
43	215
43	214
43	213
45	212
45	212
45	211
45	210
47	208
47	207
47	206
47	205
49	204
49	203
49	202
49	201
49	200
51	199
51	197
51	196
51	195
51	194
53	193
53	192
53	190
55	189
55	188
55	187
57	186
57	185
57	184
57	183
59	181
59	180
59	179
59	178
61	177
61	176
61	174
61	173
61	172
61	171
59	170
59	169
59	167
57	165
55	164
55	163
53	162
51	161
49	160
47	158
45	157
41	156
39	155
35	154
33	153
31	151
27	150
25	149
21	148
19	147
15	146
13	144
11	143
9	142
7	140
5	139
5	139
3	138
3	137
3	135
3	134
5	133
5	132
7	131
9	130
11	129
15	128
17	126
21	125
25	124
27	123
31	122
35	121
41	120
45	119
49	117
53	116
57	115
61	114
65	113
69	112
73	110
75	109
79	108
83	106
85	105
86	104
90	103
92	102
94	101
96	99
98	98
100	98
100	97
102	96
104	94
106	93
106	92
108	90
110	89
110	89
112	88
114	87
114	85
116	84
118	83
120	82
120	82
122	81
124	80
124	79
126	78
128	77
128	76
130	74
130	73
132	73
132	72
134	71
134	70
134	69
136	68
136	67
136	66
136	65
136	64
136	64
136	63
136	62
136	61
136	60
136	59
136	58
136	57
136	57
136	56
136	55
136	54
136	53
136	52
138	51
138	50
138	49
138	48
140	48
140	48
142	47
142	46
142	45
144	44
144	43
146	42
146	42
148	41
148	41
150	40
150	39
152	39
152	38
152	37
154	37
154	36
154	35
156	34
156	33
156	33
156	32
156	32
156	32
158	31
158	30
158	30
158	29
158	28
158	28
158	27
158	26
158	26
158	25
160	24
160	24
160	23
162	23
162	23
162	23
164	22
164	21
166	21
166	21
168	20
170	19
170	19
171	19
171	19
173	18
173	17
175	17
175	17
177	17
177	16
177	16
179	16
179	16
179	16
179	15
179	14
179	14
179	14
179	14
179	14
177	13
177	12
177	12
177	12
177	12
175	11
175	10
175	10
175	10
175	10
175	9
175	8
175	8
173	8
173	8
173	7
173	7
175	7
175	7
175	6
175	5
175	5
175	5
175	5
175	4
175	3
177	3
177	3
177	3
177	3
179	2
179	1
179	1
181	1
181	1
181	1
183	0
183	0
185	0
185	0
187	0
187	0
151	1
151	1
152	1
152	1
154	1
154	1
155	1
155	1
155	1
157	1
157	1
157	1
157	1
157	0
157	0
157	0
157	0
157	0
157	0
157	0
157	0
155	0
155	0
155	0
155	0
155	0
154	1
154	1
154	1
154	1
154	1
154	1
154	1
154	1
154	1
154	1
154	1
154	1
155	1
155	1
155	1
155	1
155	1
155	1
155	1
155	2
155	3
154	3
154	3
154	3
154	3
152	3
152	3
151	3
149	3
149	3
147	3
146	3
144	3
143	3
141	3
140	3
140	3
138	3
136	3
135	3
133	3
132	3
130	3
129	3
127	4
125	5
125	5
124	5
122	5
121	5
121	5
119	5
119	5
118	5
116	5
116	5
114	5
114	5
114	5
113	5
113	5
113	5
113	5
111	5
111	5
111	5
111	5
111	5
111	5
111	5
113	5
113	5
113	5
113	5
114	5
114	5
116	5
116	5
118	5
118	5
118	5
119	5
119	5
121	5
121	5
121	5
121	5
121	5
121	5
121	5
121	5
119	5
119	5
118	5
116	5
114	5
113	5
111	4
110	3
107	3
105	3
102	3
100	3
99	3
96	3
94	3
94	3
92	3
92	3
92	3
92	3
94	3
97	3
99	3
103	3
108	3
113	3
119	3
125	3
132	3
140	3
149	3
157	3
166	3
176	3
185	3
195	3
204	3
212	3
220	3
228	3
236	3
242	3
247	3
250	3
253	3
255	3
255	3
255	3
251	3
248	3
242	3
236	3
229	3
220	3
210	3
199	3
188	3
177	3
165	3
152	3
140	3
127	3
113	3
102	3
89	3
77	3
66	3
56	3
47	3
37	3
29	3
23	3
17	3
12	3
9	3
6	2
3	1
3	1
1	1
1	1
3	1
4	1
6	1
7	1
11	1
14	1
15	1
18	1
22	1
25	1
28	1
31	1
33	2
36	3
37	3
39	3
40	3
42	3
42	3
42	3
44	3
44	3
44	3
42	3
42	3
40	3
40	3
39	3
39	3
37	3
36	3
34	3
34	3
33	3
31	3
31	3
29	3
29	3
28	3
28	3
28	3
26	3
26	3
26	3
26	3
26	3
26	3
26	3
26	3
26	3
26	3
26	3
26	3
26	3
28	3
28	4
28	5
28	5
28	5
28	5
28	5
28	5
28	5
29	5
29	5
29	5
29	5
29	5
29	5
29	5
29	5
29	5
29	5
29	5
29	5
29	5
29	5
29	5
29	5
29	5
29	5
29	5
29	5
29	5
29	5
31	5
31	6
31	7
31	7
31	7
31	7
31	7
31	7
31	7
31	7
31	7
31	7
31	7
31	7
29	7
29	7
29	7
29	7
29	7
29	7
29	7
29	7
29	7
29	7
29	7
29	7
29	7
29	7
29	7
29	7
29	7
31	7
31	7
31	7
31	7
33	7
33	7
33	7
33	7
34	7
34	7
34	7
34	7
34	7
36	7
36	7
36	7
36	7
36	7
36	7
36	7
36	7
36	8
37	8
37	8
37	8
37	8
37	8
39	8
39	8
39	8
39	8
40	8
40	8
40	9
42	10
42	10
42	10
54	14
54	18
54	23
54	23
55	24
55	25
55	27
55	27
55	27
55	27
55	27
55	27
55	27
55	28
55	29
55	31
55	31
55	31
55	31
55	31
55	31
55	32
55	33
57	35
57	35
57	35
57	35
58	35
58	35
60	36
60	37
61	39
63	39
63	39
64	39
66	39
66	40
67	41
67	43
69	43
70	43
70	43
72	44
72	45
73	47
73	47
73	47
75	48
75	49
75	51
75	51
75	51
75	52
75	53
75	55
75	55
75	56
75	57
75	59
75	59
75	60
75	61
75	63
75	63
73	63
73	64
73	65
73	67
73	67
73	68
73	69
72	71
72	71
72	72
72	73
70	75
70	75
70	76
69	77
69	79
67	79
67	80
66	81
66	83
64	83
63	84
63	85
61	87
60	87
58	88
57	89
55	91
54	91
52	92
51	93
49	95
48	95
45	96
43	97
42	99
39	99
37	100
36	101
33	103
31	103
30	104
27	105
25	107
24	107
22	107
19	108
18	109
16	111
15	111
13	112
12	113
10	115
9	115
7	116
6	117
6	119
4	119
3	120
3	121
1	123
1	123
1	124
0	125
0	127
0	127
0	128
0	129
0	131
0	131
0	132
1	133
1	135
1	135
3	136
3	137
3	139
4	139
4	140
6	141
6	143
6	143
7	144
7	145
9	147
9	147
10	148
10	149
10	151
12	151
12	152
12	153
12	155
13	155
13	155
13	156
13	157
13	159
13	159
13	160
13	161
13	163
15	163
15	163
15	164
15	165
16	167
16	167
16	167
18	168
18	169
19	171
21	171
21	172
22	173
24	175
25	175
27	175
28	176
30	177
31	179
33	179
34	179
36	180
37	181
40	183
42	183
43	183
45	184
45	185
46	187
48	187
49	188
51	189
51	191
52	191
54	191
54	191
55	192
55	193
57	195
57	195
58	195
58	196
60	197
60	199
61	199
63	199
63	200
64	201
66	203
67	203
67	203
69	203
70	204
72	205
73	207
75	207
76	207
78	207
79	208
81	209
82	211
84	211
85	211
87	211
88	212
90	213
91	215
93	215
94	215
96	215
96	215
97	216
99	217
100	219
100	219
102	219
102	219
103	219
105	219
105	219
106	220
106	221
108	223
108	223
109	223
109	223
111	223
111	223
112	224
114	225
114	227
115	227
115	227
117	227
117	227
118	227
118	227
120	228
120	229
121	231
121	231
123	231
123	231
124	231
124	231
126	231
127	231
127	232
129	233
129	235
130	235
132	235
132	235
133	235
133	235
135	235
136	235
136	235
138	235
139	235
139	236
141	237
141	239
142	239
142	239
144	239
144	239
145	239
145	239
145	239
145	240
147	241
147	243
147	243
147	243
147	243
147	243
147	243
147	244
147	245
147	247
145	247
145	247
145	247
145	247
145	247
145	248
145	249
145	251
145	251
145	251
145	251
145	251
145	251
145	252
145	253
145	255
145	255
147	255
147	255
147	255
147	255
147	255
147	255
147	255
147	255
147	255
148	255
148	255
148	255
148	255
148	255
148	255
148	255
148	255
148	255
148	255
150	255
150	255
150	255
150	255
150	255
150	255
150	255
164	255
164	255
164	255
164	255
164	255
164	255
164	255
164	255
162	255
162	255
162	255
162	255
162	255
161	255
161	255
161	255
161	255
159	255
159	255
159	255
159	255
157	255
157	255
157	255
157	255
157	255
157	255
157	255
157	255
157	255
157	255
157	255
157	255
157	255
159	255
159	255
159	255
159	255
159	255
159	255
161	255
161	255
161	255
161	255
161	255
161	253
161	251
161	250
161	250
161	250
161	250
161	250
161	250
161	250
161	250
159	250
159	250
159	250
159	250
159	250
157	250
157	250
157	250
157	250
156	250
156	250
156	250
156	250
156	250
154	250
154	250
154	250
154	250
154	250
154	250
154	250
154	250
154	250
154	250
154	250
154	250
154	248
154	247
154	246
154	246
154	246
154	246
153	246
153	246
153	246
153	246
153	246
153	246
153	246
153	246
151	246
151	246
151	246
151	246
149	246
149	246
149	246
148	246
148	246
148	246
146	244
146	242
146	241
146	241
144	241
144	241
144	241
144	241
144	241
144	241
144	241
144	241
144	241
144	241
144	241
144	241
144	241
146	241
146	241
146	241
146	241
148	241
148	241
148	241
148	241
149	241
149	241
149	241
149	241
151	241
151	241
151	241
151	241
151	241
151	241
151	241
151	241
151	241
151	241
149	241
149	239
149	238
148	237
148	237
148	237
146	237
146	237
144	237
144	237
143	237
143	237
141	237
141	237
139	237
139	237
138	237
138	237
136	235
136	234
134	233
134	233
133	233
133	233
131	233
131	233
129	233
129	233
128	233
128	233
128	233
126	233
126	233
126	233
125	233
125	231
123	229
123	228
123	228
123	228
121	228
121	228
121	228
120	228
120	228
120	228
118	228
118	228
118	228
116	228
116	226
116	225
116	224
115	224
115	224
115	224
115	224
113	224
113	224
113	224
113	224
113	224
113	224
113	224
111	224
111	224
111	224
111	224
111	222
111	220
113	219
113	219
113	219
113	219
113	219
113	219
113	219
113	219
113	219
113	219
111	219
111	219
111	219
110	219
110	219
108	219
106	219
106	219
105	219
103	219
102	219
100	219
98	219
95	217
93	216
92	215
90	215
90	215
88	215
87	215
87	215
87	215
87	215
88	215
90	215
92	215
95	215
98	215
103	215
106	215
113	215
118	215
126	215
133	215
141	215
149	215
157	215
166	215
176	215
184	215
194	215
202	215
210	215
218	215
227	215
233	215
238	215
245	213
248	212
251	211
255	211
255	211
255	211
255	211
251	211
248	211
243	211
238	211
231	211
223	211
215	211
207	211
197	211
187	209
177	207
166	206
156	206
144	206
134	206
123	206
113	206
103	206
95	206
87	206
78	206
72	206
65	206
60	206
55	206
52	206
49	206
47	206
46	206
46	206
46	206
47	206
49	206
51	206
52	206
55	206
59	206
60	206
64	206
67	206
70	206
74	206
77	204
80	203
83	202
85	202
87	202
88	202
90	202
92	202
93	202
93	202
95	202
95	202
95	202
95	202
95	202
93	202
93	202
93	202
93	202
92	200
92	198
92	197
90	197
90	197
90	197
90	197
90	197
90	197
90	197
90	197
77	139
79	81
79	24
79	24
79	24
81	24
81	24
81	24
81	24
83	24
83	24
83	24
83	24
83	24
83	24
83	24
83	24
83	24
83	24
83	24
81	24
81	24
81	24
81	21
79	18
79	16
79	16
77	16
77	16
77	16
77	16
76	16
76	16
76	16
76	16
76	16
76	16
76	16
74	16
74	16
74	16
74	16
74	16
74	16
74	16
74	16
74	16
76	13
76	10
76	8
76	8
76	8
76	8
76	8
76	8
76	8
76	8
77	8
77	8
77	8
77	8
77	8
77	8
77	8
79	8
79	8
79	8
79	8
79	8
79	8
79	8
81	8
81	8
81	8
81	8
81	8
81	8
81	8
81	8
81	8
81	8
81	8
81	8
81	8
81	8
81	8
81	5
81	2
81	0
81	0
81	0
81	0
81	0
81	0
81	0
81	0
81	0
81	0
81	0
81	0
81	0
83	0
83	0
83	0
85	0
85	0
86	0
86	0
88	0
88	0
90	0
90	0
92	0
93	0
93	2
95	5
97	8
97	8
99	8
99	8
100	8
102	8
102	8
104	8
104	8
106	8
106	8
108	8
108	10
109	13
109	16
111	16
111	16
113	16
113	16
115	16
115	16
115	16
116	18
116	21
116	24
118	24
118	24
118	24
120	24
120	26
120	29
120	32
120	32
122	32
122	32
122	32
122	35
122	38
122	41
122	41
122	41
122	41
122	43
122	46
122	49
122	49
122	49
122	51
122	54
122	57
122	57
122	59
122	62
122	65
122	65
122	68
122	71
122	74
122	74
120	76
120	79
120	82
120	82
118	84
118	87
116	90
115	90
115	90
113	92
111	95
109	98
108	98
106	98
102	100
100	103
99	106
97	106
93	106
92	106
88	109
86	112
85	115
81	115
79	115
76	115
74	117
70	120
69	123
67	123
63	123
61	123
60	125
56	128
54	131
53	131
51	133
49	136
46	139
44	139
42	139
40	142
38	145
37	148
35	148
33	150
31	153
30	156
30	156
28	158
26	161
24	164
23	164
23	164
21	164
19	166
19	169
17	172
15	172
15	172
14	172
14	174
12	177
12	180
10	180
10	180
8	180
8	180
7	183
7	186
5	189
5	189
5	189
3	189
3	189
3	189
1	189
1	191
1	194
1	197
1	197
0	197
1	197
1	197
1	197
1	197
1	197
1	197
3	199
3	202
5	205
5	205
7	205
7	205
8	205
10	205
10	205
12	205
12	205
14	207
15	210
15	213
17	213
17	213
19	213
19	213
19	213
21	216
21	219
21	222
23	222
23	222
23	222
23	222
23	224
23	227
23	230
23	230
24	230
24	230
24	230
24	230
24	232
24	235
24	238
24	238
24	238
26	238
26	238
26	238
26	238
28	238
28	238
28	240
30	243
30	246
31	246
31	246
33	246
33	246
35	246
35	246
37	246
37	246
38	246
38	246
40	246
40	249
42	252
42	255
44	255
44	255
44	255
46	255
46	255
46	255
47	255
47	255
47	255
47	255
47	255
49	255
49	255
49	255
49	255
49	255
51	255
51	255
51	255
53	255
53	255
53	255
54	255
54	255
54	255
118	252
118	249
121	247
121	247
121	247
125	247
125	247
129	247
129	247
133	247
133	247
133	247
136	247
136	247
136	247
136	247
136	247
140	247
140	247
140	247
140	247
140	247
140	247
140	247
140	247
140	247
140	247
140	247
140	247
140	247
140	247
140	247
140	247
140	247
140	247
144	249
144	252
144	255
144	255
144	255
147	255
147	255
147	255
151	255
151	252
151	249
151	247
155	247
155	247
155	247
155	247
158	247
158	247
158	247
158	247
162	247
162	247
162	247
162	247
166	247
166	247
166	247
166	247
170	244
170	241
170	239
173	239
173	239
177	239
177	239
177	239
181	239
181	239
184	239
184	239
184	239
188	239
188	239
188	239
188	239
192	239
192	239
192	239
192	239
192	239
192	239
192	236
192	233
192	231
188	231
188	231
188	231
188	231
184	231
184	231
181	231
181	231
181	231
177	231
177	231
177	231
173	231
173	231
173	231
173	231
170	231
170	231
170	231
170	231
170	231
170	231
170	231
170	231
173	231
173	231
173	231
173	231
177	231
177	228
177	226
181	224
181	224
181	224
184	224
184	224
184	224
188	224
188	224
188	224
192	224
192	224
192	224
192	224
192	224
195	224
195	224
195	224
195	224
195	224
195	224
195	224
195	224
195	224
195	224
192	224
192	224
192	224
192	224
188	221
188	218
188	216
188	216
184	216
184	216
184	216
184	216
181	216
181	216
181	216
181	216
181	216
181	216
181	216
177	216
177	216
177	216
181	216
181	216
181	216
181	216
181	216
181	216
181	216
181	216
184	216
184	216
184	216
184	216
184	216
188	213
188	210
188	208
188	208
188	208
192	208
192	208
192	208
192	208
192	208
192	208
192	208
192	208
192	208
192	208
192	208
192	205
192	202
192	200
192	200
192	200
192	200
192	200
192	200
192	200
188	200
188	197
188	195
188	193
188	193
184	193
184	193
184	193
184	193
184	193
181	193
181	193
181	193
181	193
181	193
181	193
181	193
181	193
181	193
181	190
181	187
184	185
184	185
184	185
188	185
188	185
192	185
192	185
195	185
195	185
199	185
203	185
206	185
206	185
210	185
214	185
218	185
218	185
221	185
225	185
229	185
229	185
232	185
236	182
236	179
240	177
240	177
240	177
243	177
243	177
243	177
243	177
243	177
243	174
243	172
240	170
240	170
240	170
236	170
236	170
232	170
232	170
229	170
225	167
225	164
221	162
218	162
218	162
214	162
210	162
206	162
206	162
203	162
203	162
199	159
195	156
195	154
192	154
192	154
192	154
188	154
188	154
184	154
184	154
184	154
184	154
184	151
181	148
181	146
181	146
181	146
181	146
181	146
181	146
181	146
181	146
184	146
184	146
184	143
184	141
184	139
184	139
188	139
188	139
188	139
188	139
192	139
192	139
192	139
195	139
195	139
195	139
195	139
199	139
199	139
199	139
203	139
203	136
203	133
203	131
203	131
203	131
203	131
203	131
203	131
203	131
199	131
199	131
195	131
195	131
192	131
188	131
184	131
181	128
177	125
173	123
170	123
166	123
162	123
158	123
155	123
151	123
151	123
147	120
147	117
147	115
52	113
53	112
55	111
57	111
61	111
64	111
68	111
73	111
79	108
86	105
93	103
100	103
109	103
118	103
127	103
138	103
147	103
158	103
168	103
179	103
188	103
199	103
208	100
217	97
226	95
233	95
238	95
244	95
249	95
251	95
253	95
255	95
253	95
251	92
247	89
244	87
238	87
231	87
222	87
213	87
204	87
193	87
183	87
170	87
158	84
147	81
134	79
122	79
111	79
98	79
87	79
79	79
70	79
61	79
52	79
46	79
39	79
35	79
30	79
28	76
26	73
25	71
25	71
25	71
26	71
28	71
30	71
34	71
37	71
41	71
44	71
48	71
52	71
55	71
59	71
62	71
66	71
70	71
73	71
75	68
77	65
80	63
82	63
82	63
84	63
86	63
86	63
86	63
86	63
86	60
86	57
86	55
86	55
86	55
84	55
84	55
84	55
82	55
82	55
82	52
80	49
80	47
79	47
79	47
79	47
77	47
77	47
77	47
77	47
77	47
75	47
75	47
75	44
75	41
75	39
75	39
75	39
75	39
75	39
75	39
75	39
77	39
77	39
77	39
77	39
77	39
77	36
77	33
79	31
79	31
79	31
79	31
79	31
79	31
79	31
79	31
79	31
79	31
79	31
79	31
79	31
79	31
79	31
79	31
77	31
77	31
77	31
77	28
77	25
77	23
77	23
77	23
75	23
75	23
75	23
75	23
75	23
75	23
75	23
75	23
75	23
75	20
75	17
75	15
75	15
75	15
75	15
75	15
75	15
75	15
77	15
77	15
77	15
77	12
77	9
77	7
79	7
79	7
79	7
79	7
79	7
80	7
80	7
80	7
80	7
82	7
82	7
82	7
82	7
84	7
84	7
84	7
84	7
86	7
86	4
86	2
86	0
86	0
86	0
86	0
87	0
87	0
87	0
87	0
87	0
87	0
89	0
89	0
89	0
91	0
91	0
91	0
93	0
93	0
95	0
95	0
96	0
96	0
98	0
100	0
102	0
102	0
104	0
105	0
107	0
107	0
109	0
111	0
113	0
114	0
114	0
116	0
118	2
120	4
120	7
122	7
122	7
123	7
123	7
125	7
125	9
127	12
127	15
129	15
129	15
131	15
131	15
132	17
132	20
132	23
134	23
134	23
134	23
136	25
136	28
138	31
138	31
138	31
138	33
140	36
140	39
140	39
140	39
140	39
140	41
140	44
140	47
140	47
140	47
140	47
138	49
138	52
138	55
136	55
136	55
134	57
134	60
132	63
132	63
131	63
131	65
129	68
129	71
127	71
127	71
125	73
123	76
123	79
122	79
122	81
120	84
118	87
118	89
116	92
114	95
113	95
113	97
111	100
109	103
107	103
105	103
104	105
100	108
98	111
96	111
93	111
91	113
87	116
86	119
82	119
79	119
77	119
73	121
70	124
68	127
64	127
61	127
57	127
55	127
52	129
48	132
46	135
43	135
41	135
37	135
35	135
34	137
32	140
28	143
26	143
25	143
23	145
21	148
21	151
19	151
17	151
16	151
16	153
14	156
12	159
10	159
10	159
8	159
7	161
7	164
5	167
3	167
3	167
1	167
0	167
10	173
8	180
6	187
6	187
5	187
5	187
3	187
3	189
1	192
1	195
0	195
0	195
0	195
0	195
0	195
0	198
0	201
0	204
0	204
0	204
0	204
1	204
1	206
1	209
3	212
3	212
3	212
5	212
5	212
6	212
6	215
8	218
8	221
10	221
10	221
10	221
12	221
12	221
12	223
13	226
13	229
13	229
13	229
13	229
15	229
15	229
15	229
15	232
15	235
15	238
15	238
15	238
17	238
17	238
17	238
17	238
17	238
18	238
18	238
18	238
20	238
20	238
20	238
22	238
22	240
24	243
24	246
25	246
25	246
27	246
29	246
29	246
31	246
31	246
32	246
32	246
34	246
34	246
36	246
36	246
37	246
37	246
37	246
39	246
39	246
39	246
41	246
41	246
41	246
41	246
43	246
43	249
43	252
43	255
43	255
44	255
44	255
44	255
44	255
44	255
46	255
46	255
46	255
46	255
48	255
48	255
48	255
48	255
49	255
49	255
49	255
49	255
51	255
51	255
51	255
51	255
51	255
51	255
53	255
53	255
53	255
53	255
53	255
53	255
53	255
53	255
55	255
55	255
55	255
55	255
55	255
55	255
56	255
56	255
56	255
56	255
56	255
58	255
58	255
58	252
60	249
60	246
60	246
62	246
62	246
63	246
63	246
63	246
65	246
65	246
67	246
67	246
67	246
68	246
68	246
68	246
68	246
70	246
70	246
70	246
70	246
70	246
70	246
70	246
70	243
70	240
70	238
70	238
70	238
70	238
70	238
70	238
70	238
70	238
70	238
68	235
68	232
68	229
68	229
68	229
68	229
68	229
68	229
68	229
68	229
68	229
68	229
68	226
68	223
68	221
68	221
68	221
68	221
68	221
68	221
68	221
68	221
68	221
68	221
68	221
68	221
70	221
70	221
70	221
70	221
70	221
70	221
70	221
70	221
70	221
72	221
72	221
72	221
72	221
72	221
74	221
74	221
74	221
74	221
74	221
75	221
75	221
75	221
75	218
75	215
75	212
75	212
75	212
75	212
75	212
75	212
75	212
75	212
75	209
75	206
75	204
75	204
75	204
74	204
74	204
74	204
74	204
74	201
74	198
74	195
72	195
72	195
72	195
72	195
72	195
72	195
74	195
74	195
74	195
74	195
74	192
75	189
75	187
77	187
77	187
77	187
79	187
79	187
80	187
80	187
82	187
82	187
84	187
84	187
86	187
86	184
87	181
87	178
87	178
89	178
89	178
89	178
89	178
89	178
89	178
89	178
89	178
89	178
89	175
87	172
87	170
87	170
86	170
86	170
86	170
84	170
84	170
84	170
82	170
82	170
82	170
80	170
80	170
80	170
80	170
80	170
80	170
80	170
80	170
80	167
80	164
80	161
82	161
82	161
82	161
84	161
84	161
84	161
84	161
86	161
86	161
86	158
87	155
87	153
87	153
87	153
87	153
87	153
87	153
87	153
87	153
87	150
87	147
87	144
87	144
86	144
86	144
86	144
86	144
84	144
84	144
84	144
84	144
82	144
82	144
82	144
82	144
82	144
82	141
82	138
82	136
82	136
82	136
82	136
84	136
81	138
81	140
81	143
83	143
83	143
85	143
85	143
86	143
86	143
88	140
88	137
90	135
90	135
91	135
93	135
93	135
95	135
95	135
96	135
96	135
98	135
98	132
100	129
100	127
101	127
101	127
101	127
101	127
101	127
103	127
103	127
101	127
101	127
101	124
101	121
100	119
100	119
98	119
96	119
96	119
95	119
93	119
91	119
90	116
88	113
86	111
85	111
83	111
81	111
80	111
78	111
76	111
75	108
75	105
73	103
71	103
71	103
71	103
70	103
70	103
70	103
70	103
70	103
71	103
71	103
71	100
73	97
73	95
75	95
75	95
75	95
76	95
76	95
78	95
78	95
78	95
80	95
80	95
80	95
80	95
80	95
80	95
80	92
80	89
80	87
80	87
80	87
80	87
80	87
80	87
80	87
80	87
80	87
80	87
80	84
80	81
80	79
81	79
81	79
81	79
81	79
81	79
81	79
81	79
83	79
81	79
81	79
81	79
81	79
81	79
80	79
80	79
78	79
76	79
75	79
73	76
73	73
71	71
70	71
68	71
66	71
66	71
65	71
65	71
65	71
65	71
66	71
68	71
70	68
73	65
76	63
81	63
86	63
93	63
98	63
106	63
113	63
121	60
131	57
140	55
150	55
160	55
170	55
180	55
190	55
200	55
208	55
216	52
225	49
231	47
238	47
245	47
248	47
251	47
253	47
255	47
253	47
251	47
250	47
245	47
240	47
233	47
225	47
216	47
206	47
196	47
186	47
175	47
163	47
151	47
140	47
128	47
116	47
105	47
93	47
83	44
73	41
65	39
56	39
50	39
43	39
38	39
33	39
30	39
26	39
25	39
25	39
25	39
25	39
26	39
28	39
31	39
35	39
38	39
41	39
45	39
48	39
53	36
56	33
60	31
