1020
2568
3455
4316
5198
5836
8693
9517
10325
11211
11693
12115
13007
13871
14741
15645
16600
17634
18604
19515
20381
21311
22240
22592
23549
24061
24526
26187
26879
27676
28497
29451
30399
31327
31705
32903
33886
34595
35664
36567
37490
38384
39266
40125
42657
43787
44696
45559
46456
47101
47349
48237
48944
49866
50726
51620
52558
53518
54473
55400
56356
57307
58255
59213
60107
60984
61885
62938
64458
65021
65822
66837
67662
68315
68437
69430
70650
71411
72147
72906
73650
74363
74722
75135
75879
76613
77381
78181
79046
80021
80890
81405
83605
84797
85637
87295
88169
89043
89958
90945
91937
92885
93869
94864
95857
97106
97609
98544
99205
100259
100332
101093
101984
102879
103840
104744
105630
106559
107509
108417
109335
110275
111202
112039
112637
112794
113078
113693
114525
115656
116745
118281
119114
119886
120675
121478
122291
123111
123996
124894
125792
126687
127613
128472
129536
130105
131655
132758
133689
134590
135539
136488
137434
138354
139264
140160
141007
141888
142824
143631
144469
145314
146166
147090
148035
148878
149816
150698
151583
152475
153328
154194
154622
155116
155449
157175
157319
159500
160299
161791
162236
163415
164128
164795
165376
165774
166865
167887
169465
169995
171562
172215
173020
173860
174688
175546
176491
177321
178176
178936
179821
180402
180557
181051
182256
182907
183743
184251
184571
185348
185806
186965
187794
188617
189471
190368
191322
192270
193174
194131
195075
196607
196944
197815
198700
199097
199588
200445
201225
201928
203641
204288
204732
205591
206526
207473
208378
209245
210078
210857
211652
212457
213322
214237
215167
216940
217851
218732
219594
219596
220510
221421
222277
223171
224014
224887
225807
226713
227593
228488
229410
230296
231113
231883
232660
233383
234111
234836
235587
236391
237229
238093
238941
239774
240546
241354
242173
242982
243847
244798
245735
246692
247673
248634
249630
250522
251396
252236
253145
254003
254860
255730
256590
257411
258289
258774
260051
260829
261289
261656
262099
262441
263212
264068
264944
265804
266664
267531
268403
269277
270162
271037
271889
272728
273623
274536
275464
276367
277253
278118
278489
279013
279699
280676
282585
283192
283668
284770
285312
286423
287644
287650
288880
289674
290468
291289
292173
293351
293550
294064
295001
295943
297675
298595
299501
300423
301355
302303
303246
304207
305184
305409
306130
307036
307948
308830
309636
310597
311529
312475
313431
314356
315221
316122
317024
317933
318386
318778
319669
320616
321588
322559
324373
325248
326158
327040
327945
328823
329688
330525
331328
332119
332960
333863
334307
334813
335657
336557
337434
338256
339081
339870
340752
341622
342495
343347
344190
344967
345043
345889
346754
347560
347610
348454
349358
350319
351280
352221
352986
353994
354913
355741
356565
357402
359217
360106
361003
361917
362869
363789
364644
365482
366368
367256
368170
368998
369910
370825
371749
372665
373194
373598
374554
375498
376450
378172
379001
379222
379884
380807
381814
382781
383706
384570
385384
386279
387564
388037
388852
389722
390566
391428
392244
393104
394008
394948
395844
396718
397643
398595
399505
400430
401369
402326
403282
404231
405156
406074
406970
408128
409138
409772
410577
411128
411628
412629
414282
414947
416359
416642
417916
418611
419347
420105
420810
421556
422439
423259
424153
425266
426021
426820
427865
428714
429439
430281
431021
431823
432649
433489
434341
435174
436003
437067
437496
438370
439258
439850
440127
440788
441342
441922
443163
444532
446950
447710
448696
449606
451072
451852
452741
453771
455531
456251
456890
457013
457961
458866
459252
459762
460624
461535
462446
463353
463870
464511
466079
466421
466954
467678
468571
469415
469908
470187
471083
472044
472500
472489
473340
473582
474622
475129
475834
478144
479469
479585
479720
481362
482071
483082
483929
484493
484777
485370
485706
486585
487480
487947
490194
492843
493742
494624
495466
496346
497176
498018
498903
499789
500728
501224
501718
502249
503395
504308
504826
505682
506889
507757
508610
509528
510346
511220
512150
512852
514605
516129
517025
517849
518701
520280
520644
521028
521859
522741
523556
524183
525030
529708
529919
531035
531434
532584
533857
534780
535574
536450
537316
538279
539225
540113
541032
541966
542926
543896
544563
544816
545837
546799
547482
547776
548250
548296
548382
548744
549317
549649
550255
550344
550795
551412
551811
552397
552804
553662
554898
555720
556718
558615
559623
560125
560571
562395
563364
564207
565100
565731
565945
566746
567557
568419
569162
569856
570632
571985
573477
574975
575424
575951
576496
577024
577859
578925
580858
581763
582622
583667
585214
585728
586169
587191
590306
591253
592488
593303
594194
595092
595835
596707
597597
598618
599601
600601
602465
603416
604259
605197
605864
607229
607802
608122
608186
609348
609392
610431
611230
611816
612688
614512
614911
615463
616811
616881
617593
619166
619843
620405
620599
622051
622773
623502
624246
625068
625828
626672
627197
627477
629159
629876
630680
631290
631577
632437
633537
635387
635970
637084
637818
639275
640148
640927
641837
642727
643613
644473
645299
646123
646809
647660
648476
649259
650060
650994
651947
652841
653732
654642
655572
656442
657212
658256
659163
660062
660905
661308
661817
661939
662200
662827
663372
663686
664367
664976
665403
666973
667644
668394
669695
670079
670837
672757
673124
675840
676875
678525
680081
680848
680904
681827
682755
683661
684633
685546
686412
687311
688224
689238
690208
691186
692181
693146
694099
695055
695956
696827
697740
698638
699598
700595
701657
702684
703661
704610
705567
706528
707566
708433
709295
710165
711080
712048
713949
714864
715766
716677
717592
718492
719326
720218
721165
722135
723116
724107
725063
725987
726886
727774
728674
729587
730264
731333
732224
733078
733908
734803
735680
736518
737369
738236
739073
739920
740834
741774
742683
743608
744550
745491
746418
747388
748353
749325
750278
751228
752207
753167
754076
755008
755960
756921
757886
758819
759685
760513
761389
762263
763253
764158
765093
766067
767000
767931
768884
769855
770771
771690
772621
773539
774425
775287
776171
777102
777991
778886
779815
780766
781714
782631
783532
784470
785412
786307
787198
788134
789109
790065
790941
791848
792794
793683
794599
795525
796414
797238
798073
798943
799880
800820
801748
802648
803554
804443
805384
806295
807178
808083
809036
810020
810994
811990
813009
813998
814905
815787
816696
817138
817512
818506
819398
820322
821249
821943
822985
823847
824770
825690
826548
827485
828393
829351
830313
831285
832217
833181
834149
835115
836077
836930
837828
838733
839636
840491
841342
842221
843124
844031
844924
845305
845863
846770
847691
848580
849476
850364
851235
852111
852964
853866
854750
855552
856416
857298
858175
859046
859888
860680
861471
862196
862720
862987
863801
864520
865516
866360
867199
868041
868918
869825
870700
871504
872361
873305
874286
875277
876316
877353
878354
879329
880274
881221
882197
883198
884191
885206
886192
887201
888149
889104
890066
891060
892041
892987
893951
894950
895957
896891
897813
898718
899568
900441
901417
902435
903486
904452
905451
906419
907384
908284
909179
910123
911102
912034
912982
913981
914989
916000
916989
917986
918941
919866
920807
921787
922739
923660
924625
925591
926573
927471
928410
929385
930368
931343
933213
934071
934930
935847
936782
937679
938562
939484
940414
941270
942390
943066
944881
945716
946540
947448
948414
949385
950370
951336
952227
953162
954082
955032
955994
956944
957892
958807
959741
960695
961641
962558
963467
964403
965372
966334
967284
968159
969097
969973
970836
971720
972696
973667
974681
975654
976611
977585
978551
979305
979427
980318
981254
982239
983162
984090
985058
986010
987014
987789
988106
988670
989184
989536
990378
991208
991964
992906
993756
994570
994796
995333
996102
996947
997861
998763
999617
1000586
1000871
1001425
1001849
1002214
1003191
1004012
1004802
1005579
1006396
1007254
1008145
1008954
1009805
1010626
1011010
1011500
1012423
1013349
1014277
1015232
1016208
1017151
1018109
1019069
1020052
1021004
1021911
1022854
1023792
1024714
1025564
1026417
1027343
1028309
1029254
1030158
1031097
1032085
1033031
1033916
1034613
1034723
1035215
1035599
1036549
1037532
1038552
1039580
1040605
1041596
1042603
1043611
1044610
1045569
1046524
1047514
1048463
1049396
1050345
1051306
1052247
1053195
1054174
1055166
1056151
1057150
1058124
1059078
1060047
1061018
1061967
1062885
1063672
1064712
1065582
1066437
1067337
1068266
1069164
1070090
1070990
1072026
1072930
1073812
1074774
1075687
1076551
1077445
1078364
1079313
1080226
1081168
1082121
1083064
1084003
1084922
1085930
1087657
1088565
1089503
1090027
1090437
1091297
1092172
1093034
1093949
1094818
1095694
1096596
1097524
1098416
1099310
1100216
1100775
1101153
1102092
1102993
1103892
1104800
1105727
1106628
1107488
1108315
1109194
1110017
1110809
1111622
1112474
1113359
1114585
1115217
1116081
1116119
1117843
1118726
1119634
1120534
1121447
1122330
1123257
1123701
1124159
1125076
1126006
1126977
1127909
1128855
1129867
1130865
1131805
1132729
1133659
1134598
1135527
1136400
1137265
1138191
1139167
1140095
1140987
1141913
1142874
1143803
1144736
1145671
1146591
1147446
1148315
1149207
1150137
1151026
1151935
1152889
1153828
1154705
1155619
1156532
1157443
1158312
1159214
1160158
1161110
1162028
1162983
1163962
1164913
1165893
1167491
1168381
1169423
1170890
1171078
1171274
1171456
1172282
1173018
1173730
1174492
1175926
1177069
1177479
1178183
1180331
1181023
1181729
1182433
1183211
1183732
1183998
1184900
1185107
1185804
1186697
1187609
1188541
1189484
1190390
1191250
1192086
1192939
1193975
1194245
1195143
1196129
1198574
1199181
1199426
1199609
1200119
1200663
1201656
1202069
1203179
1204215
1205760
1206183
1207524
1208359
1209856
1210286
1210705
1210839
1212041
1212375
1212967
1215591
1215886
1216454
1217025
1217663
1218039
1218984
1220415
1221112
1222080
1222885
1223818
1224731
1225496
1226498
1227401
1227763
1228188
1229226
1230168
1231067
1231966
1232892
1233441
1233919
1234327
1235662
1236991
1237466
1239293
1240157
1241157
1242071
1242987
1243310
1243803
1244851
1245404
1245691
1246699
1247226
1247736
1248306
1250290
1251133
1251799
1252027
1252832
1253372
1253820
1254562
1255446
1256363
1257255
1258139
1259074
1260006
1260941
1261851
1262817
1263772
1264724
1265681
1266658
1267611
1268387
1269475
1270439
1271377
1272298
1273154
1274076
1274982
1275860
1276689
1277612
1278547
1279375
1279255
1279917
1280340
1281230
1282162
1282660
1283091
1283581
1283963
1285528
1286315
1287230
1288049
1288862
1289796
1290905
1291771
1292446
1294121
1294529
1295850
1296794
1297825
1299565
1300568
1301371
1302711
1303675
1304019
1305692
1306047
1306870
1308161
1308670
1309360
1310183
1310720
1311005
1313109
1314766
1315462
1317132
1317970
1318908
1319948
1320305
1321599
1323500
1325054
1325475
1327599
1328288
1330158
1331165
1332592
1333727
1334276
1334663
1335293
1335728
1336714
1338867
1339522
1340423
1341438
1341963
1343119
1344492
1345015
1345606
1346575
1348248
1349105
1350355
1351032
1351856
1353574
1354389
1355328
1355752
1356255
1357164
1357853
1358976
1359718
1360803
1361576
1362915
1363249
1364075
1364106
1364774
1365750
1367730
1368781
1369865
1371070
1371703
1372683
1373611
1374111
1374576
1375111
1375521
1376483
1377782
1378300
1379341
1380338
1381358
1382003
1382606
1384440
1386217
1386470
1387052
1387947
1388905
1390591
1390934
1391719
1391802
1391839
1392640
1393132
1394903
1395919
1396983
1397222
1397428
1398597
1399383
1402108
1403029
1403360
1404001
1404991
1406060
1407069
1408074
1408487
1409111
1410166
1411236
1411651
1412158
1412442
1413259
1414283
1414991
1415768
1416419
1418570
1419737
1421090
1421916
1422680
1423718
1424643
1425552
1426447
1427256
1428368
1429323
1429722
1430112
1432738
1433115
1433572
1434284
1436009
1436603
1436822
1437656
1438505
1438942
1439644
1440586
1440675
1443903
1445681
1446564
1447358
1448355
1449244
1449749
1450245
1451170
1452088
1452997
1453374
1453980
1454939
1455869
1456789
1457731
1458656
1459200
1459679
1460505
1461426
1462313
1463231
1464106
1464999
1465856
1466661
1467676
1468627
1469516
1470352
1471270
1472172
1473017
1473535
1473487
1474120
1474804
1476149
1478452
1479150
1480167
1481422
1482275
1483690
1485306
1486123
1487037
1487512
1488132
1488178
1488504
1488723
1488867
1490155
1491448
1491939
1493497
1494013
1494524
1495399
1495458
1498428
1499274
1499956
1500582
1501283
1502708
1502997
1504475
1505277
1505377
1505748
1506304
1508201
1509176
1509884
1510213
1511187
1512672
1513977
1514816
1516803
1517759
1518656
1519324
1519540
1520129
1520414
1520578
1521662
1522101
1523139
1524034
1524609
1525081
1526181
1527106
1528106
1529761
1530014
1530928
1531963
1533438
1533744
1534222
1536097
1537475
1537850
1538044
1538557
1539263
1540932
1542070
1542768
1543094
1544311
1544864
1546079
1546894
1547456
1547846
1548866
1550589
1552383
1552781
1554083
1555770
1556572
1556867
1557464
1558342
1559493
1560229
1561184
1562127
1562494
1563406
1566208
1566421
1567211
1568298
1571028
1571862
1573633
1574506
1575222
1576173
1577038
1578007
1579020
1580029
1581061
1582090
1583108
1584100
1585022
1586009
1586960
1587690
1588212
1588862
1590258
1590811
1591771
1592661
1593645
1594629
1595542
1596425
1597311
1598211
1599142
1600115
1601096
1602034
1602839
1603496
1604403
1605301
1606195
1607015
1608022
1610235
1610567
1611338
1612085
1612799
1613312
1615433
1616305
1617741
1617921
1618983
1619454
1619816
1620714
1621698
1622700
1624057
1624596
1626822
1627828
1628777
1629677
1630553
1631496
1632460
1633438
1634446
1635449
1636429
1637420
1638391
1639305
1640254
1641188
1642150
1643068
1643506
1644516
1644777
1646816
1647713
1648642
1649650
1650137
1650537
1651472
1652417
1653381
1654320
1655215
1656164
1657044
1657914
1658813
1659745
1660652
1661536
1662421
1663325
1664192
1665074
1665993
1666937
1667775
1668766
1669605
1669861
1670138
1670542
1671405
1672304
1673198
1673477
1674037
1674850
1675662
1676596
1677516
1678416
1679324
1680244
1681173
1682111
1682999
1683927
1684809
1685726
1686634
1687578
1688568
1689569
1690510
1691469
1692421
1693347
1694321
1695256
1696172
1697118
1698066
1699004
1699960
1700882
1701761
1702744
1703687
1704589
1705480
1705974
1706416
1707366
1708285
1709210
1710077
1710903
1711748
1712225
1712466
1713140
1713412
1714277
1716012
1716888
1717732
1718237
1718586
1718887
1719427
1720324
1721200
1722086
1723015
1723831
1725432
1725771
1726713
1727641
1728582
1729522
1730475
1731408
1732352
1733258
1734139
1735041
1735985
1736879
1737786
1738723
1739659
1740565
1741545
1742459
1743386
1744347
1745295
1746217
1746711
1747062
1747964
1748848
1749737
1750603
1751530
1752439
1753337
1754212
1755115
1756024
1756921
1757827
1758732
1759122
1759820
1760490
1761390
1762367
1763266
1763667
1764177
1765070
1765949
1766808
1767694
1768628
1769570
1770522
1771502
1772399
1773351
1774314
1775270
1776192
1777113
1778053
1778978
1779886
1780769
1781603
1782256
1782585
1783487
1784434
1785381
1786344
1787271
1788220
1789164
1790126
1791058
1792016
1792962
1793935
1794835
1795768
1796661
1797620
1798119
1798573
1799417
1800301
1801222
1802199
1803049
1803507
1803970
1804925
1805843
1807698
1808628
1809588
1810453
1811358
1812281
1813201
1814100
1815050
1815983
1816876
1818109
1818710
1819637
1820654
1821554
1822521
1823485
1824449
1825400
1826370
1827428
1828324
1830095
1831073
1832036
1832958
1833892
1834871
1835806
1836723
1837653
1838609
1839587
1840638
1841623
1843957
1844848
1845505
1846569
1847485
1848404
1849320
1850241
1851189
1852117
1853010
1853971
1854914
1855837
1856786
1857761
1858714
1859607
1860509
1861437
1862315
1863211
1864174
1865128
1866080
1867033
1867657
1868908
1869780
1870624
1871508
1872467
1873418
1874943
1875285
1876230
1877194
1878160
1881081
1882057
1883045
1883157
1883981
1884916
1885881
1886816
1887739
1888663
1889600
1890576
1891490
1892434
1893394
1894344
1895233
1896178
1897865
1898955
1899905
1901056
1901743
1903091
1903694
1904678
1905349
1906476
1907485
1908445
1909364
1910304
1910572
1911279
1912190
1913111
1913335
1913954
1914942
1915832
1917380
1917805
1919853
1920718
1921661
1922615
1923617
1924601
1925593
1926520
1927137
1928399
1929309
1930040
1930196
1930749
1931117
1931113
1931914
1932758
1933406
1934601
1935567
1936561
1937558
1938559
1939554
1940530
1941425
1942364
1943310
1944284
1945240
1946205
1947199
1948201
1949171
1950169
1951186
1952183
1953138
1954084
1955056
1956024
1957078
1957885
1958361
1958808
1959680
1960594
1960896
1961497
1962398
1963263
1964133
1965041
1965900
1966806
1967676
1968480
1969346
1970120
1970130
1970972
1971824
1972636
1973427
1974215
1974983
1975796
1977414
1978245
1979104
1979922
1980718
1981582
1982489
1983383
1984245
1985140
1986058
1986955
1987826
1988751
1989624
1990630
1991426
1992330
1993042
1993225
1993980
1994968
1995846
1996696
1997530
1998335
1998845
1999218
2000887
2001406
2004229
2005149
2006087
2007047
2007972
2008909
2009827
2010760
2011691
2012573
2013545
2014469
2015385
2016315
2017252
2018125
2018976
2019863
2020774
2021704
2022656
2023597
2024503
2025424
2026349
2027293
2028261
2029182
2030075
2031771
2032627
2034074
2035194
2035425
2035602
2036658
2037573
2038522
2039496
2040451
2041402
2042373
2044264
2045207
2046144
2047053
2047989
2049536
2050015
2051042
2051486
2052054
2053135
2054221
2055210
2056211
2057238
2058236
2059249
2060254
2061192
2062148
2063100
2064068
2065036
2066017
2067003
2067995
2068976
2069754
2070602
2070888
2071901
2072350
2072826
2073687
2074579
2075497
2076407
2077338
2078295
2079261
2080243
2081101
2082125
2083000
2083846
2085875
2086543
2087278
2088399
2089307
2091049
2091509
2091949
2092879
2093804
2094727
2096233
2097144
2098130
2099016
2099542
2100278
2101225
2102149
2103085
2104049
2105037
2106006
2106963
2107968
2108967
2109942
2110837
2111967
2112848
2113859
2114810
2115794
2116725
2117065
2117682
2118591
2119651
2120567
2121613
2122512
2123472
2124412
2125267
2126183
2127106
2128002
2128942
2129887
2130873
2131892
2132854
2133807
2134789
2135770
2136684
2138339
2139219
2140015
2140841
2141718
2142702
2143639
2144555
2145434
2146293
2147190
2148110
2149050
2149995
2150930
2151849
2152756
2153674
2154648
2155625
2156616
2157598
2158519
2159466
2160427
2161430
2162431
2163373
2164300
2165186
2166021
2166893
2167836
2168815
2169692
2170603
2171569
2172542
2173512
2174485
2175379
2176319
2177250
2178204
2179146
2180023
2180961
2181906
2182850
2183758
2184682
2185574
2186495
2187440
2188421
2189396
2190301
2191229
2192170
2193134
2194014
2194917
2195886
2196846
2197734
2198672
2199564
2200533
2201463
2202346
2203252
2204216
2205186
2206127
2207098
2208074
2209037
2209979
2210948
2211932
2212880
2213838
2214817
2215795
2216731
2217694
2218677
2219570
2220411
2221285
2222214
2223194
2224093
2225042
2225960
2226901
2227763
2228649
2229577
2230542
2231469
2232347
2233230
2234147
2235037
2235904
2236773
2237703
2238601
2240000
2240196
2241042
2241755
2242559
2242744
2243508
2244251
2244801
2246121
2246574
2247294
2248839
2249579
2250360
2251075
2251891
2252632
2253398
2254089
2254890
2255665
2256386
2256892
2258715
2258907
2259429
2260683
2260960
2261281
2261961
2262355
2263236
2264149
2265075
2265459
2267249
2268396
2269182
2269694
2270260
2271997
2272785
2273776
2274299
2274723
2275221
2275819
2276282
2276787
2278497
2278610
2279936
2280383
2281165
2281871
2283001
2283440
2283939
2285627
2287614
2288122
2288537
2290726
2290922
2293053
2293212
2294598
2294649
2297520
2298958
2300346
2301936
2302348
2303941
2304284
2304656
2305404
2306464
2307232
2307209
2307571
2307595
2308155
2308736
2308789
2309683
2311164
2311336
2311674
2311905
2313288
2315134
2316085
2317267
2317863
2319625
2320687
2321631
2322630
2323611
2324987
2325615
2327034
2328298
2328377
2329454
2330419
2331649
2332262
2334175
2335194
2336962
2339226
2340345
2340863
2341634
2343410
2343733
2344546
2345034
2345800
2346576
2346791
2347291
2348130
2349557
2349765
2351336
2352043
2352638
2353121
2354081
2355711
2355821
2356851
2358672
2358696
2359024
2359164
2359599
2360750
2361067
2361907
2362982
2363903
2364923
2366278
2367955
2368565
2369530
2370560
2370768
2371668
2372588
2372974
2373202
2373402
2375014
2375895
2376289
2377333
2378331
2379278
2380006
2381476
2382610
2383350
2383590
2384397
2386939
2387219
2387994
2388988
2389722
2391470
2392576
2393082
2393330
2393732
2395647
2395830
2396157
2397152
2397785
2399211
2399542
2399733
2400233
2400503
2401272
2401343
2401676
2402561
2403882
2404065
2404855
2405495
2406346
2407611
2409040
2409460
2410046
2410470
2410894
2412168
2413086
2414059
2414519
2416681
2417678
2418404
2419362
2420427
2421758
2422269
2422417
2423805
2424062
2425345
2426060
2427299
2428913
2431405
2431863
2433531
2434014
2435378
2436090
2437588
2437597
2437670
2438282
2439119
2440691
2441763
2442126
2442656
2443476
2444521
2445447
2446497
2448150
2449048
2449883
2450830
2450911
2451688
2452657
2453497
2454191
2456131
2457581
2458108
2458789
2461779
2463429
2464269
2465091
2466029
2466959
2467894
2468827
2469788
2470713
2471644
2472555
2473397
2475170
2476035
2476863
2477809
2478706
2479620
2480050
2480479
2481409
2482278
2483236
2484192
2485059
2485972
2486867
2487821
2488756
2489247
2489840
2490744
2491712
2492625
2493474
2494119
2495076
2495847
2496648
2497512
2498189
2499790
2500687
2501665
2502295
2502442
2503527
2504412
2505295
2507070
2507869
2508993
2509942
2510925
2511380
2511927
2512982
2514026
2515014
2516029
2517040
2518065
2518508
2519123
2520727
2521579
2522092
2522548
2523574
2524655
2525520
2526483
2527470
2528394
2529321
2530224
2530276
2531212
2532153
2533307
2533886
2535603
2536431
2536939
2537293
2538253
2539201
2540193
2541208
2542224
2543222
2544282
2545314
2546370
2547434
2548465
2549507
2550521
2551540
2552485
2553465
2553805
2554445
2555454
2556472
2557409
2558299
2559261
2560240
2561242
2562207
2563147
2564099
2565055
2566025
2566942
2567896
2568891
2569901
2570854
2571807
2572758
2573310
2573634
2574554
2575504
2576372
2576877
2577253
2578183
2579112
2580030
2580918
2581775
2582663
2583196
2583541
2584049
2584421
2585242
2586087
2586950
2587881
2588820
2589723
2590666
2591643
2592635
2593599
2594581
2595573
2596574
2597533
2598511
2599510
2600530
2601509
2602501
2603564
2604618
2605596
2606596
2607575
2608508
2609032
2609483
2610484
2611503
2612495
2613436
2614438
2615450
2616452
2617391
2618258
2618366
2619359
2620371
2621370
2622166
2623153
2624135
2625080
2626491
2626980
2627922
2628880
2629731
2630648
2631564
2632476
2633207
2633401
2634367
2635269
2636169
2637131
2638115
2639063
2640026
2641008
2642020
2642998
2643993
2645033
2646081
2647099
2648126
2649172
2650215
2651222
2652260
2653295
2654292
2655266
2656256
2657264
2657764
2658251
2659189
2660179
2661191
2662159
2663125
2664115
2665116
2666050
2667017
2667993
2668938
2669547
2669862
2670791
2671797
2672774
2673739
2674719
2675700
2676616
2677540
2678415
2679299
2680095
2680871
2681294
2681628
2683140
2683841
2684615
2685380
2686852
2687574
2687977
2688288
2689034
2689766
2690542
2691070
2691334
2692755
2694140
2694723
2696183
2696452
2696875
2698869
2699221
2700632
2701909
2702491
2702583
2703282
2704413
2705912
2706429
2707221
2708989
2709962
2711161
2711938
2712708
2713438
2714189
2714948
2715719
2716464
2717240
2717991
2718728
2720318
2721271
2721791
2722299
2722940
2724070
2725336
2726885
2727566
2728294
2729123
2730551
2731929
2732541
2733564
2733877
2734036
2735097
2735541
2735972
2736022
2737882
2738588
2740292
2741756
2742011
2742819
2743591
2744474
2745323
2745847
2747171
2748415
2749009
2749808
2750324
2752403
2753508
2754047
2754261
2755717
2756376
2757248
2757994
2758701
2758912
2759499
2760205
2760704
2760983
2761726
2763773
2764639
2765374
2766970
2767782
2768601
2769471
2770398
2771338
2772213
2773067
2773919
2774878
2775803
2776728
2777611
2778248
2779472
2780431
2781653
2782294
2783220
2784146
2785092
2785976
2786865
2787679
2788352
2788550
2790382
2791201
2791990
2792802
2793607
2794457
2794982
2795346
2796248
2797153
2798535
2800506
2801374
2802174
2802775
2805561
2806776
2807534
2808766
2809368
2810683
2811761
2813400
2813858
2814825
2815632
2816596
2817531
2818540
2819278
2820174
2821113
2822097
2822948
2823839
2824850
2825754
2827609
2828449
2829287
2830181
2831157
2832124
2832891
2833926
2834404
2834843
2835722
2836688
2837656
2838586
2839523
2841527
2842460
2843414
2844460
2845173
2845497
2846505
2847508
2848570
2849594
2850631
2851678
2852746
2853759
2854785
2855809
2856822
2857782
2858790
2859826
2861812
2862841
2863749
2865135
2865819
2866819
2867806
2868708
2869714
2870254
2870636
2871661
2872628
2873604
2874609
2875646
2876531
2877447
2877947
2878575
2879568
2880365
2880515
2881459
2882473
2883406
2884322
2885271
2886215
2886973
2888167
2889707
2890666
2891886
2892600
2893506
2894371
2895277
2896234
2897083
2897908
2898742
2899606
2900566
2901498
2902462
2903463
2903507
2904565
2905984
2906564
2908221
2909023
2909963
2910936
2911887
2912854
2913798
2914752
2915710
2916350
2916768
2918559
2920090
2922843
2923854
2924857
2925779
2926769
2927806
2928798
2929750
2930743
2931780
2933615
2934264
2934969
2936454
2937709
2939353
2940283
2941270
2942186
2943085
2944000
2944567
2945006
2945531
2945844
2946733
2947704
2948736
2949801
2950792
2951781
2952811
2953844
2954864
2955879
2956920
2957976
2959017
2960030
2961070
2962130
2963108
2964117
2965149
2966175
2967143
2968171
2969207
2970264
2971257
2972261
2973307
2974331
2975286
2976271
2977276
2978277
2978757
2979202
2980198
2981206
2982156
2983095
2984059
2985012
2986478
2986823
2987794
2988803
2989808
2990803
2991779
2992802
2993829
2994798
2995790
2996795
2997772
2998753
2999775
3000798
3001804
3002805
3003821
3004890
3005869
3006846
3007800
3008406
3009000
3009842
3010778
3011757
3012749
3013713
3014684
3015755
3016788
3017767
3018723
3019719
3020698
3021597
3022598
3023610
3024540
3025499
3026507
3027567
3028552
3029525
3030580
3031568
3032512
3033494
3034513
3035502
3036470
3037486
3038586
3039587
3040561
3041591
3042618
3043575
3044525
3045564
3046616
3047572
3048530
3049549
3051004
3051444
3052458
3053480
3054428
3055407
3056437
3057456
3058407
3059405
3060449
3061463
3062420
3063425
3064459
3065405
3066362
3067352
3068293
3069144
3070000
3070849
3071703
3072535
3073343
3074149
3074970
3075880
3076812
3077705
3078599
3079513
3080459
3081401
3082306
3083233
3084204
3085186
3086159
3087084
3088011
3088932
3089830
3090669
3091962
3092346
3093986
3094527
3094853
3095742
3096634
3097486
3098285
3099139
3100005
3100650
3101876
3102812
3103695
3104786
3105658
3106509
3107488
3108478
3109449
3110064
3110075
3111270
3111864
3113117
3113978
3114491
3114898
3115722
3116647
3116905
3117609
3118539
3119098
3119586
3120418
3121335
3122240
3123851
3125021
3126006
3127051
3128301
3128739
3130076
3131314
3132022
3133069
3134033
3135065
3136065
3137066
3137985
3137813
3138888
3139824
3140780
3141702
3142129
3142680
3143671
3144180
3145119
3146201
3146730
3147673
3148623
3149664
3150646
3151528
3152423
3153379
3154236
3155128
3156072
3157037
3157875
3157989
3158512
3158867
3159801
3160755
3161730
3162284
3164177
3165195
3166033
3167042
3168000
3168922
3169886
3170821
3171696
3172575
3173475
3174420
3175438
3176465
3177445
3177970
3178481
3179453
3180457
3181435
3182395
3183326
3184215
3185122
3186082
3187101
3188121
3189133
3190118
3191106
3192101
3193117
3194125
3195070
3196178
3197155
3198581
3199328
3200073
3200874
3201617
3202526
3203066
3204529
3205232
3205611
3206128
3206653
3207223
3208656
3209431
3210135
3210908
3211475
3212483
3213337
3213799
3214238
3215240
3215853
3216366
3216838
3217359
3218327
3219349
3220039
3220383
3221498
3221938
3223073
3224799
3225589
3225999
3226041
3226598
3227134
3227687
3228398
3229276
3229723
3230112
3230942
3231741
3232256
3232763
3233763
3235254
3236898
3238011
3238893
3239741
3240624
3241445
3241957
3242265
3243069
3243954
3244794
3245643
3245972
3246583
3247462
3248354
3249316
3250224
3251153
3252107
3252339
3253061
3254008
3254179
3254233
3254913
3255467
3256605
3257499
3258352
3259138
3259884
3260352
3261033
3261531
3261661
3261916
3262629
3263264
3263457
3264557
3266049
3266151
3266396
3267487
3268192
3268599
3269000
3270170
3270600
3272958
3273879
3274470
3275173
3275378
3275792
3276323
3278126
3278845
3279867
3280325
3280672
3281362
3281889
3285042
3285935
3286860
3287750
3288654
3290401
3291269
3292161
3293062
3293669
3294923
3295837
3296741
3298805
3299356
3300132
3301006
3301832
3302672
3303504
3304402
3305318
3306267
3307241
3308175
3309152
3310038
3311906
3312853
3313773
3314675
3315637
3316375
3318257
3319594
3320709
3321652
3322598
3323519
3324580
3325607
3326669
3327712
3328728
3329748
3330737
3331771
3332831
3333846
3334867
3335887
3336916
3337938
3338929
3339954
3340980
3342056
3342984
3344058
3344971
3345834
3345873
3346926
3347900
3348964
3349883
3350874
3351885
3352925
3353861
3354861
3355869
3356924
3357963
3359016
3360046
3360957
3361904
3362813
3363670
3364673
3365644
3366624
3367554
3367911
3368451
3369385
3370314
3371180
3372076
3373057
3374132
3375133
3376184
3377201
3378200
3379702
3380804
3381216
3381717
3382613
3383248
3383604
3384482
3384701
3385465
3386396
3388170
3389052
3390666
3391725
3392576
3392962
3393516
3394378
3395316
3397563
3398166
3400139
3400797
3401547
3402431
3403238
3403776
3404249
3405175
3406121
3407179
3408268
3409344
3410389
3411405
3412388
3413328
3414228
3415128
3415963
3416942
3417977
3419120
3420254
3421360
3422434
3423460
3424433
3425361
3426216
3427094
3428015
3428959
3429906
3430780
3431620
3432476
3433375
3434334
3435233
3436115
3437016
3437903
3438760
3439627
3440546
3441464
3442371
3443237
3444048
3444912
3445806
3446648
3447558
3448818
3449489
3450436
3451390
3452382
3453376
3454415
3454305
3455472
3456530
3457620
3458710
3459782
3460818
3461790
3462725
3463520
3464503
3465444
3466368
3467248
3468077
3468882
3469661
3470558
3471408
3472208
3473025
3473778
3474729
3475638
3476543
3477390
3478221
3479081
3479549
3479927
3480821
3481728
3482642
3483593
3484538
3485507
3486482
3487454
3488451
3489465
3490514
3491499
3492462
3493472
3494489
3495432
3496419
3497452
3498438
3499393
3500310
3501249
3502230
3502475
3503240
3504254
3505173
3506082
3506157
3507142
3508140
3508718
3509076
3510034
3511023
3512009
3512921
3513635
3514713
3515706
3516721
3517709
3518967
3519621
3520564
3521507
3522049
3522494
3523416
3524364
3525357
3526388
3527374
3528331
3529285
3530122
3531024
3531934
3532905
3533857
3534842
3535833
3536793
3537753
3538724
3539714
3540651
3541624
3541838
3542592
3543533
3544424
3545308
3546155
3547099
3548080
3549000
3549866
3550754
3551675
3552589
3553426
3554201
3555070
3555941
3556827
3557689
3558505
3559326
3560160
3561018
3561905
3562826
3563749
3564659
3565540
3566439
3566962
3568624
3569386
3570388
3571435
3572486
3573526
3574515
3575521
3576526
3577525
3578435
3579296
3580219
3581181
3582219
3583216
3584168
3585149
3586129
3587105
3588875
3589788
3590688
3591598
3592595
3593586
3594552
3595530
3596550
3597596
3598598
3599600
3600651
3601717
3602756
3603782
3604791
3605790
3606709
3607593
3608541
3609565
3610532
3611509
3612492
3613505
3614473
3615457
3616450
3617460
3618428
3619419
3620453
3621477
3622454
3623429
3625465
3625967
3626324
3627252
3628162
3629062
3629403
3629933
3630955
3631602
3631895
3632837
3633785
3634703
3635597
3635952
3636424
3637406
3638364
3639781
3640207
3641192
3642194
3643225
3644179
3645144
3646115
3647126
3648082
3648923
3649700
3650561
3651467
3652070
3652403
3653306
3654228
3656013
3656889
3657774
3658617
3659425
3660288
3661122
3661794
3662062
3662727
3663012
3663875
3664684
3665691
3666620
3667531
3668482
3668912
3669383
3670336
3671330
3672294
3674079
3674272
3675248
3676212
3677083
3677156
3678100
3678694
3679047
3679950
3680944
3681902
3682828
3683719
3684651
3685309
3685619
3686530
3687439
3688293
3689367
3690344
3691257
3692188
3693101
3693951
3694804
3695664
3696494
3697295
3698156
3699017
3699916
3700821
3701672
3702540
3703336
3704147
3704982
3705798
3705747
3706648
3707514
3708437
3709386
3710292
3711250
3712235
3713232
3714212
3715199
3716198
3717191
3718134
3719096
3720086
3721031
3721953
3722778
3723599
3724543
3725451
3726370
3727015
3727969
3729547
3730325
3730344
3730748
3731368
3731971
3732478
3732859
3733731
3735609
3737329
3738216
3739107
3739910
3740745
3741594
3742491
3743367
3744279
3745252
3746167
3747109
3748061
3749003
3749990
3750990
3751946
3752932
3753948
3754928
3755873
3756849
3757856
3758846
3759786
3760761
3761759
3762700
3763676
3764656
3765589
3766530
3767508
3768488
3768581
3769382
3769806
3770306
3771283
3772228
3773199
3774256
3774651
3774967
3775981
3776856
3777776
3778696
3779607
3780511
3781474
3782476
3783454
3784369
3785285
3786166
3787053
3787894
3788777
3789692
3790613
3791558
3792480
3793401
3794195
3795382
3796388
3797339
3798324
3799324
3800323
3801306
3802280
3803276
3804301
3805287
3806291
3807295
3808295
3809258
3810236
3811215
3812147
3813129
3814109
3815030
3815980
3816954
3817890
3818796
3819734
3820701
3821619
3822534
3823101
3823465
3824321
3825193
3826140
3826993
3827911
3828685
3828624
3829246
3829766
3830486
3831597
3832543
3833504
3834467
3835452
3836428
3837376
3838288
3839254
3840223
3841170
3841356
3842121
3842945
3843049
3843966
3844851
3845754
3846698
3847639
3849466
3850431
3851387
3852312
3853256
3853286
3854255
3855191
3856197
3857168
3858154
3859128
3860080
3861042
3862024
3862977
3863958
3864958
3865901
3866896
3867913
3868854
3869785
3870683
3871551
3872373
3873237
3874149
3875120
3876043
3876940
3877831
3878762
3879711
3880628
3881527
3882482
3883459
3884428
3885401
3886373
3887353
3888299
3889234
3890181
3892209
3892736
3892854
3893796
3894700
3895655
3896622
3897584
3898496
3899443
3900439
3901419
3902344
3902932
3903304
3904314
3905322
3906280
3907287
3908248
3909164
3910010
3910108
3910622
3911058
3912026
3912941
3913899
3914853
3915772
3916662
3917567
3918504
3919386
3920275
3921182
3922105
3922987
3923947
3924958
3925901
3926864
3927856
3928877
3929845
3930838
3931835
3932823
3933771
3934760
3935727
3936590
3937586
3938539
3939437
3940371
3941349
3942369
3943306
3944215
3945134
3946113
3947030
3947953
3948917
3949889
3950782
3951714
3952647
3953588
3954458
3955379
3956348
3957300
3958245
3959229
3960230
3961150
3962032
3962921
3963838
3964726
3965602
3966561
3967574
3968506
3969445
3970417
3971384
3972295
3973198
3974118
3975086
3976014
3976916
3977836
3978785
3979586
3980653
3981608
3982567
3983498
3984450
3985407
3986306
3987151
3987620
3988803
3989682
3990542
3991407
3992340
3993282
3994173
3995005
3995083
3995901
3996948
3997896
3998853
3999776
4000659
4001192
4001757
4002737
4003737
4004707
4005684
4006681
4007682
4008690
4009647
4009845
4012295
4013198
4014022
4013954
4015081
4015694
4017333
4018149
4018911
4019961
4020207
4022994
4023832
4025609
4026510
4027351
4027862
4030821
4031712
4032596
4034343
4036084
4036878
4037748
4038136
4038621
4039523
4040459
4041370
4042307
4043273
4043765
4044161
4045450
4047340
4047572
4047769
4049930
4050717
4051557
4052500
4053490
4054518
4055513
4056540
4057557
4058504
4059437
4060409
4061268
4062112
4063015
4063950
4064858
4065751
4066697
4067615
4068592
4069564
4070510
4071464
4072451
4073371
4074307
4075293
4076229
4077162
4078107
4078952
4079908
4080762
4081685
4083378
4084736
4085093
4085980
4086866
4088805
4089376
4091139
4092034
4092844
4093722
4094651
4095612
4096072
4098041
4098241
4098559
4099172
4100172
4101168
4102797
4103593
4104377
4107738
4109043
4110308
4111605
4112547
4112859
4114897
4115560
4116554
4118016
4118311
4119258
4119573
4120704
4123054
4124074
4125161
4126057
4127630
4128046
4128943
4129800
4130931
4131899
4132903
4133945
4135025
4135407
4136488
4137928
4138863
4138996
4141860
4142798
4143721
4144714
4145437
4145657
4147741
4148747
4149780
4150792
4151834
4152854
4154632
4156622
4157508
4157947
4158978
4160121
4161078
4161963
4162901
4163851
4164793
4165679
4166479
4167660
4168177
4170344
4170980
4173303
4173973
4175431
4176112
4176805
4177467
4177920
4178151
4178255
4179418
4180182
4180887
4181579
4183046
4185660
4186522
4187421
4188379
4189312
4190214
4191904
4192688
4193449
4194214
4195010
4195850
4196692
4197571
4198430
4198899
4199238
4200059
4200838
4201617
4202396
4203225
4204121
4205063
4205978
4206889
4207729
4208576
4209451
4210333
4211216
4212143
4212991
4214270
4214776
4215143
4215989
4216219
4217207
4218059
4218932
4219834
4220709
4221540
4222393
4223322
4224291
4225299
4226288
4227186
4228106
4229022
4229966
4230919
4231850
4232761
4233687
4234580
4235527
4236412
4237203
4238108
4239007
4239894
4240797
4241738
4242648
4243522
4244384
4244298
4245342
4246262
4247180
4248062
4248939
4249841
4250691
4251487
4252323
4253228
4254241
4255287
4256227
4257211
4258182
4259138
4260027
4260962
4261935
4262935
4263806
4264738
4265676
4266600
4267533
4268449
4269358
4270271
4271229
4272192
4273123
4274081
4275071
4276061
4276997
4277958
4278890
4279777
4280651
4281582
4282542
4283544
4284479
4284781
4285464
4286386
4287225
4287470
4288002
4289030
4289896
4291685
4292572
4292954
4293445
4294380
4295333
4296357
4297373
4298340
4299278
4300209
4301186
4302117
4303080
4304027
4304980
4306023
4306366
4306873
4307871
4308816
4309763
4310782
4311655
4312667
4312822
4313606
4314572
4315566
4316115
4316497
4317535
4318550
4319530
4320461
4321417
4322429
4323467
4324421
4325393
4326910
4327368
4328286
4329287
4330481
4331209
4332147
4333117
4334086
4335060
4335964
4336892
4337844
4338791
4339769
4340767
4341722
4342627
4343589
4344311
4344818
4345152
4345280
4346187
4346609
4346787
4347453
4349431
4350864
4351754
4352667
4353574
4354474
4355052
4355380
4356349
4357332
4358273
4359263
4360274
4361276
4362264
4363215
4364010
4364953
4365910
4366850
4367786
4368764
4369784
4370791
4371740
4372658
4373627
4374613
4375595
4376477
4377310
4378149
4379059
4380042
4381044
4382063
4383070
4384065
4385020
4386011
4386999
4387983
4388973
4389977
4390930
4391900
4392855
4393782
4394630
4395536
4396519
4396805
4397527
4398415
4399339
4400244
4401127
4401988
4402904
4403845
4404826
4405753
4406623
4407474
4408289
4409137
4410061
4411015
4411924
4412882
4413869
4414832
4415777
4416754
4417721
4418627
4419065
4419541
4420432
4421285
4422162
4423119
4424103
4425084
4426079
4427089
4428130
4428955
4430034
4431017
4431980
4432963
4433949
4434974
4435922
4436908
4437596
4438855
4439727
4440638
4441555
4442498
4443416
4444353
4445322
4446263
4447206
4448172
4448714
4448989
4450005
4450978
4452348
4453377
4453757
4454696
4455649
4456572
4457531
4458591
4459560
4460029
4460524
4461325
4462238
4463141
4463992
4464979
4465986
4467221
4467930
4468996
4470272
4470783
4471690
4472586
4473504
4474879
4475267
4476154
4477092
4478082
4478989
4479947
4481861
4482808
4483785
4484744
4485638
4486562
4487443
4488415
4489268
4490133
4491034
4491951
4492936
4493923
4494829
4495810
4496708
4497647
4498527
4499462
4500439
4501362
4502284
4503214
4504112
4504947
4505872
4506836
4507787
4508729
4509694
4510682
4511632
4512564
4513543
4514517
4515440
4516394
4517349
4518269
4519172
4520124
4521121
4521984
4522493
4522833
4526190
4526589
4527063
4527823
4528613
4529442
4530262
4531048
4532225
4532562
4533251
4534774
4535634
4537009
4537684
4538570
4539380
4539875
4540160
4540972
4541839
4542805
4543675
4544560
4545502
4546439
4547395
4548321
4549205
4550124
4551072
4552034
4552963
4553901
4554864
4555852
4556787
4557756
4558753
4559758
4560708
4561690
4562709
4563709
4564625
4565482
4566669
4567603
4568573
4569506
4570432
4571286
4572202
4573181
4574185
4574580
4575147
4576131
4577091
4577990
4578877
4579776
4580734
4581713
4582647
4583595
4584578
4585566
4586538
4587454
4588423
4589417
4590432
4591395
4592377
4593349
4594271
4595113
4595174
4596055
4596955
4597783
4598601
4599427
4599800
4600328
4603196
4604143
4605103
4606376
4607989
4608890
4609921
4610560
4610925
4611832
4612794
4613819
4614852
4615837
4616833
4617828
4618831
4619760
4620684
4621150
4621667
4622691
4623637
4624644
4625672
4626757
4627759
4628772
4629817
4630813
4631833
4632772
4633724
4634705
4635675
4636565
4637549
4638545
4639553
4640571
4641504
4642480
4643498
4644566
4645592
4646550
4647556
4648614
4649644
4650561
4651523
4652517
4653492
4654497
4655467
4656436
4657436
4658390
4659379
4660391
4661389
4662335
4663362
4664405
4665429
4666381
4667391
4668396
4669362
4670292
4671274
4671964
4672253
4673149
4674088
4675940
4676923
4677823
4678743
4679736
4680754
4681798
4682796
4683778
4684778
4685787
4686774
4687695
4688678
4689637
4690531
4691415
4692345
4693360
4694361
4695344
4696363
4697396
4698413
4699357
4700338
4701303
4702271
4703194
4703709
4704086
4705076
4706087
4707062
4708072
4709097
4710141
4711122
4712158
4713237
4714213
4715171
4716108
4717064
4717981
4718904
4720076
4720857
4721769
4722054
4722705
4723649
4724512
4725434
4726378
4727344
4728157
4728821
4729190
4730155
4731134
4732103
4733049
4734041
4735026
4735973
4736923
4737871
4738741
4739592
4740395
4741095
4741575
4741957
4743192
4743993
4744198
4745236
4746263
4747148
4748101
4749107
4750076
4751006
4751999
4753022
4754014
4755008
4756057
4757106
4758047
4759011
4760019
4760985
4762102
4762864
4763837
4764842
4765795
4766823
4767884
4768933
4769926
4770960
4771991
4772924
4773883
4774886
4775859
4776748
4777690
4778652
4779504
4780033
4780548
4781388
4782515
4783574
4784594
4785599
4786558
4787716
4788729
4789674
4790693
4791691
4792641
4793603
4794614
4795613
4796559
4797540
4798343
4799210
4800090
4800998
4801943
4802374
4802400
4802890
4803859
4804869
4805846
4806772
4807723
4808723
4809727
4810659
4810516
4811658
4812663
4813643
4814841
4815164
4815294
4816558
4817548
4818487
4819469
4820943
4821261
4821543
4821981
4823317
4824232
4825162
4826083
4827036
4827646
4827910
4828967
4829822
4830610
4831331
4832564
4833440
4834367
4835331
4836288
4837179
4838082
4839441
4839406
4840871
4841465
4841714
4842614
4843505
4844251
4845237
4846155
4846977
4847755
4848856
4849764
4850682
4851565
4853037
4854287
4855283
4855772
4856100
4856997
4857894
4858752
4859902
4860436
4861541
4861870
4862470
4862650
4864242
4864592
4865128
4865729
4866171
4867140
4868113
4869043
4869554
4869971
4870833
4871836
4873541
4874449
4875453
4876790
4877338
4878321
4879240
4880222
4881217
4882179
4883094
4884027
4885002
4885968
4886842
4887675
4888288
4888561
4889496
4890104
4890546
4891550
4892543
4893518
4894524
4895532
4896533
4897484
4898450
4899449
4900424
4901374
4902372
4903220
4904252
4905239
4906161
4907152
4908465
4909069
4910087
4911242
4912069
4913805
4914681
4914843
4915920
4916855
4917870
4918945
4919982
4920855
4921522
4922628
4923601
4924496
4925486
4926465
4926971
4927450
4928425
4929414
4930429
4931445
4932442
4933410
4934367
4935379
4936395
4937406
4939319
4939918
4940288
4941010
4942232
4943172
4944229
4945203
4945895
4946265
4947278
4948299
4949348
4950403
4951023
4951463
4952450
4953457
4954484
4955615
4956427
4957367
4959224
4960134
4961035
4961934
4962850
4963225
4963810
4964256
4964787
4965237
4965740
4966807
4967619
4969288
4970204
4971007
4971226
4972246
4973216
4974135
4974553
4975114
4976123
4977175
4978144
4979125
4980095
4981106
4982075
4983025
4983988
4984881
4985774
4986769
4987724
4988632
4989543
4991042
4992873
4993765
4994659
4995568
4996472
4997559
4998250
4998652
4999113
4999968
5000815
5001623
5002498
5003418
5004303
5005127
5006089
5007087
5008037
5008967
5009946
5010929
5011432
5011992
5013482
5013911
5015861
5016738
5018614
5019107
5019863
5020669
5021140
5021603
5022539
5023501
5024476
5025415
5026345
5027261
5027281
5028143
5029307
5030015
5030880
5031752
5032695
5033641
5034525
5035471
5036480
5037488
5038494
5039459
5040440
5041369
5042300
5043279
5044301
5045348
5046392
5047336
5048317
5049332
5050343
5051330
5052271
5053155
5054099
5055083
5056113
5057140
5058126
5059109
5060135
5061175
5062144
5063146
5064198
5065234
5066220
5067167
5068225
5069268
5070306
5071231
5072233
5073284
5074271
5075229
5076188
5077145
5078157
5079150
5080055
5080978
5081939
5082869
5083832
5084839
5085864
5086829
5087830
5088852
5089799
5091695
5092629
5093531
5094451
5095277
5095935
5096436
5097445
5098981
5099380
5100417
5101420
5102379
5103413
5104435
5105389
5106340
5107328
5108333
5109351
5110289
5111276
5112291
5113225
5114159
5115061
5115976
5116978
5117959
5119631
5120512
5121553
5122565
5123572
5124601
5125564
5126586
5127652
5128743
5129850
5130930
5131995
5133052
5134102
5135124
5136175
5137237
5138320
5139334
5140368
5141444
5142504
5143457
5144475
5145511
5146469
5147446
5148502
5149587
5150706
5151781
5152671
5152738
5153751
5154770
5155751
5156710
5157647
5158537
5159472
5160456
5161313
5162111
5163239
5164123
5164346
5165027
5165873
5166891
5167873
5169843
5170799
5171761
5172645
5172644
5173723
5174598
5175539
5175651
5176434
5177337
5178271
5178875
5179255
5180225
5181207
5182177
5183195
5184242
5185273
5186267
5187203
5188161
5189125
5190072
5191044
5192031
5192959
5193993
5195071
5196049
5196939
5197840
5199734
5200638
5201544
5202476
5203470
5204458
5205463
5206506
5207522
5208529
5209577
5210618
5211640
5212700
5213735
5214736
5215750
5216792
5217804
5218778
5219814
5220855
5221769
5222759
5223377
5223733
5224787
5225859
5226841
5227873
5228914
5229927
5230922
5231930
5232886
5233879
5234877
5235814
5236749
5237541
5238248
5238606
5239503
5240452
5241439
5242457
5243403
5244314
5245342
5246355
5247346
5248284
5249264
5250271
5251299
5252311
5253245
5254222
5255209
5256123
5257105
5258111
5259090
5260037
5261051
5262118
5263128
5264092
5265112
5266114
5267067
5268072
5269128
5270128
5271076
5272103
5273142
5274127
5275090
5275629
5276097
5277164
5278083
5278598
5279137
5280207
5281245
5282234
5283300
5284351
5285348
5286395
5287429
5288300
5289392
5290504
5291561
5292555
5293593
5294666
5295648
5296609
5297600
5298564
5299516
5300518
5301556
5302603
5303620
5304668
5305714
5306702
5307748
5308833
5309850
5310844
5311881
5312879
5313811
5314811
5315850
5316888
5317852
5318870
5319903
5320948
5321951
5322944
5323955
5324983
5326049
5327129
5328116
5329100
5330126
5331137
5332049
5332976
5333935
5334918
5335938
5336908
5337867
5338882
5339932
5340941
5341884
5342890
5343926
5344914
5345878
5346906
5347952
5348953
5349980
5350996
5351972
5352694
5353892
5354860
5355780
5356717
5357652
5358578
5359486
5360344
5361195
5362083
5363001
5363939
5364851
5365738
5366665
5367630
5368598
5369519
5370505
5371508
5372519
5373461
5374449
5375457
5376394
5377342
5378309
5379281
5380277
5381213
5382076
5382019
5382993
5383943
5384948
5385941
5386935
5387888
5388828
5389797
5390757
5391738
5392762
5393797
5394796
5395828
5396856
5397801
5398741
5399732
5400756
5401787
5402773
5403790
5404854
5405877
5406832
5407868
5408889
5409911
5410894
5411810
5412772
5413741
5414757
5415786
5416743
5417747
5418772
5419776
5420732
5421747
5422821
5423897
5424934
5425897
5426926
5427991
5429061
5430010
5430995
5432024
5432995
5433979
5435019
5436062
5437040
5438029
5439109
5440188
5441204
5442173
5443166
5444199
5445219
5446225
5447156
5448075
5449173
5450220
5451254
5452186
5453185
5454204
5455226
5456150
5457148
5457780
5458184
5459240
5460242
5461202
5462229
5463278
5464345
5465317
5466190
5466969
5467902
5468865
5469881
5470939
5472044
5473138
5474183
5475172
5476131
5477124
5478145
5479175
5480175
5481136
5482188
5483154
5484118
5485072
5486056
5487010
5487945
5488938
5489931
5490894
5491813
5492626
5492727
5493651
5494594
5495510
5496475
5497438
5498362
5499316
5500313
5501319
5502316
5503262
5504180
5505143
5506072
5506953
5507855
5508779
5509782
5510739
5511706
5512689
5513598
5513682
5514576
5515544
5516531
5517499
5518421
5519317
5520131
5521378
5522135
5523060
5524065
5525022
5526000
5526502
5526941
5527889
5528877
5529868
5531134
5531413
5531421
5532743
5533171
5533724
5534158
5534667
5535041
5536483
5537424
5538322
5539235
5540249
5541249
5541880
5542218
5543209
5544144
5545139
5546073
5547051
5548028
5548927
5549838
5550814
5551827
5552828
5553663
5554128
5554652
5555714
5557462
5558344
5559185
5560142
5561043
5561922
5562834
5563665
5564881
5565439
5566300
5567193
5568073
5568988
5569939
5570493
5570918
5571908
5572930
5573960
5574991
5575951
5576899
5577848
5578817
5579817
5580784
5581689
5582509
5583380
5584973
5586883
5587455
5587940
5588772
5589698
5590696
5591697
5592700
5593634
5594569
5595526
5596539
5597459
5598440
5599456
5600420
5601406
5602385
5602815
5603456
5604452
5605389
5606334
5607329
5608344
5609349
5610279
5611214
5612217
5613237
5614196
5615219
5616283
5617374
5618434
5619462
5620513
5621514
5622451
5623405
5624394
5625387
5626350
5627361
5628390
5629421
5630401
5631390
5632368
5633345
5634366
5635391
5636333
5637308
5638310
5639325
5640292
5641238
5642228
5643240
5644254
5645169
5646153
5647170
5648182
5649165
5650189
5651220
5652226
5653175
5654167
5655194
5656223
5657242
5658232
5659222
5660157
5660649
5661151
5662078
5663050
5663994
5665018
5666036
5666976
5667894
5668877
5669871
5670844
5671774
5672754
5673771
5674727
5675751
5676758
5677692
5678603
5680561
5681122
5682197
5682681
5683189
5684127
5685032
5685983
5686962
5688013
5689831
5691460
5692510
5693412
5694157
5694931
5695726
5696566
5697447
5698387
5699338
5700279
5701193
5702143
5703163
5703852
5705556
5706413
5707753
5708285
5709496
5710319
5711275
5711887
5712663
5713539
5714391
5714877
5715201
5716064
5716884
5717800
5718706
5719578
5720459
5721337
5722222
5723913
5724620
5725180
5725640
5726492
5727334
5728232
5729207
5730229
5731229
5732208
5732844
5733207
5734375
5735191
5736147
5737144
5738168
5739163
5740099
5741066
5742052
5743082
5744033
5745028
5746008
5746955
5747952
5749014
5750440
5752070
5753117
5754155
5755113
5756112
5757142
5758176
5759202
5760162
5761109
5762109
5763177
5764313
5765402
5766437
5767487
5768538
5769556
5770565
5771565
5772568
5773572
5774497
5775422
5776244
5777090
5777922
5778266
5778828
5779760
5780690
5781633
5782533
5783362
5784241
5785164
5786172
5787063
5787567
5787612
5789177
5790151
5790666
5792325
5793135
5793991
5794841
5795329
5795615
5796399
5797099
5797926
5798376
5798715
5799537
5800450
5801457
5802414
5803380
5804357
5805490
5806147
5806989
5807794
5808639
5809569
5810353
5811200
5811700
5812532
5813612
5814608
5815575
5816495
5817445
5818363
5819283
5820211
5821143
5822081
5822993
5823827
5824698
5825700
5826726
5827792
5828865
5829953
5831033
5831662
5832188
5832303
5832703
5833088
5833425
5833895
5834204
5834817
5836178
5837199
5838289
5839028
5839196
5840303
5840829
5841310
5843344
5844295
5845289
5846217
5847153
5848177
5849224
5850600
5851116
5851973
5852984
5854035
5854590
5854962
5856111
5857028
5857932
5858851
5859858
5860974
5862063
5863173
5864131
5865121
5866766
5867665
5867891
5868994
5870821
5872071
5872876
5873756
5874660
5875524
5876447
5877343
5878223
